tiempo,datos_ECG
0.0,2.0772238514173997
0.005,1.5786901270772238
0.01,1.5298142717497556
0.015,1.686217008797654
0.02,1.7986314760508308
0.025,1.7644183773216031
0.03,1.6764418377321604
0.035,1.6471163245356795
0.04,1.66177908113392
0.045,1.6422287390029326
0.05,1.5933528836754642
0.055,1.5884652981427174
0.06,1.6177908113391983
0.065,1.6031280547409579
0.07,1.5640273704789833
0.075,1.5591397849462365
0.08,1.5835777126099706
0.085,1.5933528836754642
0.09,1.5835777126099706
0.095,1.5933528836754642
0.1,1.6226783968719452
0.105,1.6080156402737047
0.11,1.5640273704789833
0.115,1.5640273704789833
0.12,1.6031280547409579
0.125,1.6177908113391983
0.13,1.6177908113391983
0.135,1.632453567937439
0.14,1.656891495601173
0.145,1.6471163245356795
0.15,1.6177908113391983
0.155,1.6226783968719452
0.16,1.656891495601173
0.165,1.6520039100684263
0.17,1.6226783968719452
0.17500000000000002,1.632453567937439
0.18,1.66177908113392
0.185,1.6520039100684263
0.19,1.6226783968719452
0.195,1.6226783968719452
0.2,1.66177908113392
0.20500000000000002,1.66177908113392
0.21,1.6275659824046922
0.215,1.6275659824046922
0.22,1.6715542521994136
0.225,1.6764418377321604
0.23,1.6520039100684263
0.23500000000000001,1.656891495601173
0.24,1.6959921798631477
0.245,1.6959921798631477
0.25,1.6666666666666667
0.255,1.686217008797654
0.26,1.715542521994135
0.265,1.7008797653958945
0.27,1.66177908113392
0.275,1.656891495601173
0.28,1.686217008797654
0.28500000000000003,1.6813294232649072
0.29,1.632453567937439
0.295,1.6129032258064515
0.3,1.632453567937439
0.305,1.6275659824046922
0.31,1.6031280547409579
0.315,1.6031280547409579
0.32,1.6177908113391983
0.325,1.598240469208211
0.33,1.5786901270772238
0.335,1.5835777126099706
0.34,1.6080156402737047
0.34500000000000003,1.6226783968719452
0.35000000000000003,1.5933528836754642
0.355,1.5933528836754642
0.36,1.6177908113391983
0.365,1.6080156402737047
0.37,1.5786901270772238
0.375,1.5835777126099706
0.38,1.6177908113391983
0.385,1.6177908113391983
0.39,1.5933528836754642
0.395,1.5884652981427174
0.4,1.598240469208211
0.405,1.598240469208211
0.41000000000000003,1.5884652981427174
0.41500000000000004,1.5933528836754642
0.42,1.6129032258064515
0.425,1.6080156402737047
0.43,1.5835777126099706
0.435,1.5835777126099706
0.44,1.6031280547409579
0.445,1.6031280547409579
0.45,1.5640273704789833
0.455,1.5591397849462365
0.46,1.5933528836754642
0.465,1.6031280547409579
0.47000000000000003,1.5786901270772238
0.47500000000000003,1.5640273704789833
0.48,1.5884652981427174
0.485,1.6031280547409579
0.49,1.5884652981427174
0.495,1.5786901270772238
0.5,1.6177908113391983
0.505,1.6129032258064515
0.51,1.5591397849462365
0.515,1.5689149560117301
0.52,1.6275659824046922
0.525,1.6373411534701858
0.53,1.6031280547409579
0.535,1.5884652981427174
0.54,1.6080156402737047
0.545,1.6080156402737047
0.55,1.5884652981427174
0.555,1.5786901270772238
0.56,1.598240469208211
0.5650000000000001,1.6080156402737047
0.5700000000000001,1.5933528836754642
0.5750000000000001,1.5884652981427174
0.58,1.6275659824046922
0.585,1.632453567937439
0.59,1.598240469208211
0.595,1.5933528836754642
0.6,1.6129032258064515
0.605,1.6177908113391983
0.61,1.5933528836754642
0.615,1.6031280547409579
0.62,1.656891495601173
0.625,1.6422287390029326
0.63,1.5786901270772238
0.635,1.5689149560117301
0.64,1.5933528836754642
0.645,1.5933528836754642
0.65,1.573802541544477
0.655,1.5786901270772238
0.66,1.6129032258064515
0.665,1.6226783968719452
0.67,1.5933528836754642
0.675,1.5933528836754642
0.68,1.6275659824046922
0.685,1.6129032258064515
0.6900000000000001,1.5689149560117301
0.6950000000000001,1.5542521994134897
0.7000000000000001,1.6080156402737047
0.705,1.6080156402737047
0.71,1.5786901270772238
0.715,1.5493646138807429
0.72,1.4467253176930597
0.725,1.3636363636363635
0.73,1.4027370478983383
0.735,1.520039100684262
0.74,1.8084066471163245
0.745,2.2140762463343107
0.75,2.952101661779081
0.755,3.23069403714565
0.76,3.1915933528836753
0.765,2.4731182795698925
0.77,1.715542521994135
0.775,1.4418377321603129
0.78,1.5298142717497556
0.785,1.6666666666666667
0.79,1.7008797653958945
0.795,1.66177908113392
0.8,1.6275659824046922
0.805,1.5786901270772238
0.81,1.5395894428152492
0.8150000000000001,1.5591397849462365
0.8200000000000001,1.598240469208211
0.8250000000000001,1.5933528836754642
0.8300000000000001,1.5542521994134897
0.835,1.5347018572825024
0.84,1.5493646138807429
0.845,1.5493646138807429
0.85,1.5298142717497556
0.855,1.5298142717497556
0.86,1.5640273704789833
0.865,1.573802541544477
0.87,1.5493646138807429
0.875,1.5542521994134897
0.88,1.5835777126099706
0.885,1.5835777126099706
0.89,1.544477028347996
0.895,1.5493646138807429
0.9,1.5933528836754642
0.905,1.6080156402737047
0.91,1.5835777126099706
0.915,1.5884652981427174
0.92,1.6177908113391983
0.925,1.6031280547409579
0.93,1.5689149560117301
0.935,1.5786901270772238
0.9400000000000001,1.6177908113391983
0.9450000000000001,1.6226783968719452
0.9500000000000001,1.6031280547409579
0.9550000000000001,1.6031280547409579
0.96,1.632453567937439
0.965,1.6422287390029326
0.97,1.6177908113391983
0.975,1.6177908113391983
0.98,1.6373411534701858
0.985,1.6275659824046922
0.99,1.6129032258064515
0.995,1.6373411534701858
1.0,1.6764418377321604
1.0050000000000001,1.686217008797654
1.01,1.6666666666666667
1.0150000000000001,1.6764418377321604
1.02,1.6959921798631477
1.025,1.6911045943304008
1.03,1.6666666666666667
1.035,1.66177908113392
1.04,1.686217008797654
1.045,1.6666666666666667
1.05,1.6226783968719452
1.055,1.6226783968719452
1.06,1.6471163245356795
1.065,1.6471163245356795
1.07,1.6275659824046922
1.075,1.6177908113391983
1.08,1.6226783968719452
1.085,1.6177908113391983
1.09,1.598240469208211
1.095,1.598240469208211
1.1,1.6129032258064515
1.105,1.6226783968719452
1.11,1.6031280547409579
1.115,1.6031280547409579
1.12,1.6226783968719452
1.125,1.6226783968719452
1.1300000000000001,1.6031280547409579
1.135,1.598240469208211
1.1400000000000001,1.6226783968719452
1.145,1.6080156402737047
1.1500000000000001,1.5884652981427174
1.155,1.5884652981427174
1.16,1.6129032258064515
1.165,1.6031280547409579
1.17,1.573802541544477
1.175,1.5786901270772238
1.18,1.6080156402737047
1.185,1.6031280547409579
1.19,1.5689149560117301
1.195,1.5689149560117301
1.2,1.6031280547409579
1.205,1.6129032258064515
1.21,1.5786901270772238
1.215,1.5835777126099706
1.22,1.6275659824046922
1.225,1.6275659824046922
1.23,1.598240469208211
1.235,1.5884652981427174
1.24,1.6129032258064515
1.245,1.6177908113391983
1.25,1.5933528836754642
1.2550000000000001,1.5786901270772238
1.26,1.598240469208211
1.2650000000000001,1.6080156402737047
1.27,1.5884652981427174
1.2750000000000001,1.598240469208211
1.28,1.6275659824046922
1.285,1.6031280547409579
1.29,1.5835777126099706
1.295,1.6031280547409579
1.3,1.6177908113391983
1.305,1.6031280547409579
1.31,1.5884652981427174
1.315,1.6080156402737047
1.32,1.6520039100684263
1.325,1.6715542521994136
1.33,1.6275659824046922
1.335,1.6080156402737047
1.34,1.6471163245356795
1.345,1.6666666666666667
1.35,1.6715542521994136
1.355,1.6422287390029326
1.36,1.6373411534701858
1.365,1.6275659824046922
1.37,1.6031280547409579
1.375,1.6129032258064515
1.3800000000000001,1.6422287390029326
1.385,1.6275659824046922
1.3900000000000001,1.5933528836754642
1.395,1.5884652981427174
1.4000000000000001,1.6080156402737047
1.405,1.6129032258064515
1.41,1.5933528836754642
1.415,1.5884652981427174
1.42,1.6031280547409579
1.425,1.6031280547409579
1.43,1.598240469208211
1.435,1.6080156402737047
1.44,1.6422287390029326
1.445,1.6080156402737047
1.45,1.4516129032258065
1.455,1.3685239491691104
1.46,1.6520039100684263
1.465,1.656891495601173
1.47,1.6275659824046922
1.475,1.6226783968719452
1.48,1.6520039100684263
1.485,1.6422287390029326
1.49,1.6177908113391983
1.495,1.6226783968719452
1.5,1.6471163245356795
1.5050000000000001,1.6715542521994136
1.51,1.6666666666666667
1.5150000000000001,1.656891495601173
1.52,1.6666666666666667
1.5250000000000001,1.6715542521994136
1.53,1.6520039100684263
1.5350000000000001,1.6373411534701858
1.54,1.6422287390029326
1.545,1.656891495601173
1.55,1.6471163245356795
1.555,1.6422287390029326
1.56,1.6764418377321604
1.565,1.6813294232649072
1.57,1.6666666666666667
1.575,1.686217008797654
1.58,1.7008797653958945
1.585,1.6764418377321604
1.59,1.6422287390029326
1.595,1.6764418377321604
1.6,1.739980449657869
1.605,1.7253176930596286
1.61,1.6471163245356795
1.615,1.6177908113391983
1.62,1.6520039100684263
1.625,1.66177908113392
1.6300000000000001,1.6471163245356795
1.635,1.6373411534701858
1.6400000000000001,1.6129032258064515
1.645,1.6177908113391983
1.6500000000000001,1.656891495601173
1.655,1.6666666666666667
1.6600000000000001,1.6764418377321604
1.665,1.66177908113392
1.67,1.6275659824046922
1.675,1.5933528836754642
1.68,1.6275659824046922
1.685,1.656891495601173
1.69,1.6422287390029326
1.695,1.6226783968719452
1.7,1.520039100684262
1.705,1.4222873900293256
1.71,1.4516129032258065
1.715,1.5786901270772238
1.72,1.8328445747800586
1.725,2.228739002932551
1.73,2.898338220918866
1.735,3.23069403714565
1.74,3.1867057673509285
1.745,2.463343108504399
1.75,1.7350928641251222
1.7550000000000001,1.520039100684262
1.76,1.6520039100684263
1.7650000000000001,1.8181818181818181
1.77,1.7790811339198436
1.7750000000000001,1.6666666666666667
1.78,1.6813294232649072
1.7850000000000001,1.6911045943304008
1.79,1.6520039100684263
1.795,1.6373411534701858
1.8,1.6520039100684263
1.805,1.6422287390029326
1.81,1.6080156402737047
1.815,1.5933528836754642
1.82,1.6226783968719452
1.825,1.6275659824046922
1.83,1.5933528836754642
1.835,1.5933528836754642
1.84,1.6422287390029326
1.845,1.656891495601173
1.85,1.6129032258064515
1.855,1.5835777126099706
1.86,1.6275659824046922
1.865,1.6422287390029326
1.87,1.6080156402737047
1.875,1.5884652981427174
1.8800000000000001,1.6373411534701858
1.885,1.6813294232649072
1.8900000000000001,1.6520039100684263
1.895,1.6275659824046922
1.9000000000000001,1.66177908113392
1.905,1.6813294232649072
1.9100000000000001,1.6471163245356795
1.915,1.6177908113391983
1.92,1.66177908113392
1.925,1.6715542521994136
1.93,1.6422287390029326
1.935,1.6373411534701858
1.94,1.6715542521994136
1.945,1.6959921798631477
1.95,1.6520039100684263
1.955,1.6520039100684263
1.96,1.6813294232649072
1.965,1.6666666666666667
1.97,1.6471163245356795
1.975,1.6666666666666667
1.98,1.7057673509286413
1.985,1.6911045943304008
1.99,1.6666666666666667
1.995,1.715542521994135
2.0,1.7741935483870968
2.005,1.7497556207233627
2.0100000000000002,1.6911045943304008
2.015,1.6911045943304008
2.02,1.7497556207233627
2.025,1.7546432062561095
2.0300000000000002,1.6911045943304008
2.035,1.656891495601173
2.04,1.6764418377321604
2.045,1.6764418377321604
2.05,1.6422287390029326
2.055,1.6275659824046922
2.06,1.656891495601173
2.065,1.6666666666666667
2.07,1.6226783968719452
2.075,1.6177908113391983
2.08,1.6764418377321604
2.085,1.686217008797654
2.09,1.6373411534701858
2.095,1.632453567937439
2.1,1.6911045943304008
2.105,1.6911045943304008
2.11,1.6373411534701858
2.115,1.632453567937439
2.12,1.6666666666666667
2.125,1.6813294232649072
2.13,1.6471163245356795
2.1350000000000002,1.6422287390029326
2.14,1.6813294232649072
2.145,1.6666666666666667
2.15,1.6031280547409579
2.1550000000000002,1.573802541544477
2.16,1.656891495601173
2.165,1.6666666666666667
2.17,1.6129032258064515
2.1750000000000003,1.6177908113391983
2.18,1.6666666666666667
2.185,1.6813294232649072
2.19,1.6373411534701858
2.195,1.6177908113391983
2.2,1.6471163245356795
2.205,1.6471163245356795
2.21,1.6031280547409579
2.215,1.5933528836754642
2.22,1.632453567937439
2.225,1.6080156402737047
2.23,1.5835777126099706
2.235,1.573802541544477
2.24,1.6080156402737047
2.245,1.6373411534701858
2.25,1.6471163245356795
2.255,1.6715542521994136
2.2600000000000002,1.7008797653958945
2.265,1.686217008797654
2.27,1.6226783968719452
2.275,1.6129032258064515
2.2800000000000002,1.6764418377321604
2.285,1.6813294232649072
2.29,1.6471163245356795
2.295,1.6471163245356795
2.3000000000000003,1.6813294232649072
2.305,1.6911045943304008
2.31,1.656891495601173
2.315,1.66177908113392
2.32,1.7008797653958945
2.325,1.6666666666666667
2.33,1.5884652981427174
2.335,1.573802541544477
2.34,1.6177908113391983
2.345,1.6422287390029326
2.35,1.6031280547409579
2.355,1.5835777126099706
2.36,1.598240469208211
2.365,1.573802541544477
2.37,1.5395894428152492
2.375,1.5786901270772238
2.38,1.656891495601173
2.3850000000000002,1.6715542521994136
2.39,1.6129032258064515
2.395,1.598240469208211
2.4,1.6422287390029326
2.4050000000000002,1.6373411534701858
2.41,1.5640273704789833
2.415,1.4516129032258065
2.42,1.383186705767351
2.4250000000000003,1.436950146627566
2.43,1.5004887585532747
2.435,1.6813294232649072
2.44,2.1065493646138806
2.445,2.702834799608993
2.45,3.23069403714565
2.455,3.225806451612903
2.46,2.9423264907135875
2.465,2.0772238514173997
2.47,1.466275659824047
2.475,1.3685239491691104
2.48,1.5835777126099706
2.485,1.7204301075268817
2.49,1.6959921798631477
2.495,1.6275659824046922
2.5,1.632453567937439
2.505,1.6226783968719452
2.5100000000000002,1.5640273704789833
2.515,1.544477028347996
2.52,1.5933528836754642
2.525,1.598240469208211
2.5300000000000002,1.544477028347996
2.535,1.520039100684262
2.54,1.5689149560117301
2.545,1.5640273704789833
2.5500000000000003,1.520039100684262
2.555,1.5249266862170088
2.56,1.5933528836754642
2.565,1.6031280547409579
2.57,1.544477028347996
2.575,1.520039100684262
2.58,1.573802541544477
2.585,1.5884652981427174
2.59,1.544477028347996
2.595,1.5298142717497556
2.6,1.5835777126099706
2.605,1.598240469208211
2.61,1.5493646138807429
2.615,1.5298142717497556
2.62,1.5640273704789833
2.625,1.5689149560117301
2.63,1.544477028347996
2.6350000000000002,1.5493646138807429
2.64,1.6080156402737047
2.645,1.6129032258064515
2.65,1.5591397849462365
2.6550000000000002,1.5395894428152492
2.66,1.5835777126099706
2.665,1.5884652981427174
2.67,1.5395894428152492
2.6750000000000003,1.520039100684262
2.68,1.573802541544477
2.685,1.5933528836754642
2.69,1.5591397849462365
2.695,1.544477028347996
2.7,1.6031280547409579
2.705,1.6275659824046922
2.71,1.5835777126099706
2.715,1.573802541544477
2.72,1.6129032258064515
2.725,1.6129032258064515
2.73,1.5689149560117301
2.735,1.5689149560117301
2.74,1.6226783968719452
2.745,1.6226783968719452
2.75,1.5640273704789833
2.755,1.5347018572825024
2.7600000000000002,1.5786901270772238
2.765,1.5884652981427174
2.77,1.5347018572825024
2.775,1.520039100684262
2.7800000000000002,1.573802541544477
2.785,1.5835777126099706
2.79,1.5249266862170088
2.795,1.5102639296187683
2.8000000000000003,1.5786901270772238
2.805,1.6031280547409579
2.81,1.5640273704789833
2.815,1.5542521994134897
2.82,1.598240469208211
2.825,1.6129032258064515
2.83,1.5689149560117301
2.835,1.5640273704789833
2.84,1.6177908113391983
2.845,1.6226783968719452
2.85,1.5689149560117301
2.855,1.5493646138807429
2.86,1.5933528836754642
2.865,1.6177908113391983
2.87,1.573802541544477
2.875,1.5542521994134897
2.88,1.598240469208211
2.8850000000000002,1.6129032258064515
2.89,1.5640273704789833
2.895,1.5493646138807429
2.9,1.6080156402737047
2.9050000000000002,1.6226783968719452
2.91,1.573802541544477
2.915,1.5542521994134897
2.92,1.6031280547409579
2.9250000000000003,1.6226783968719452
2.93,1.5689149560117301
2.935,1.5542521994134897
2.94,1.6129032258064515
2.945,1.6373411534701858
2.95,1.5835777126099706
2.955,1.5542521994134897
2.96,1.6031280547409579
2.965,1.6373411534701858
2.97,1.6275659824046922
2.975,1.632453567937439
2.98,1.6813294232649072
2.985,1.6813294232649072
2.99,1.6031280547409579
2.995,1.5933528836754642
3.0,1.6715542521994136
3.005,1.7008797653958945
3.0100000000000002,1.6422287390029326
3.015,1.5786901270772238
3.02,1.6031280547409579
3.025,1.6275659824046922
3.0300000000000002,1.6031280547409579
3.035,1.598240469208211
3.04,1.6422287390029326
3.045,1.6471163245356795
3.0500000000000003,1.5884652981427174
3.055,1.5542521994134897
3.06,1.598240469208211
3.065,1.6373411534701858
3.0700000000000003,1.6080156402737047
3.075,1.5884652981427174
3.08,1.6373411534701858
3.085,1.6471163245356795
3.09,1.598240469208211
3.095,1.5835777126099706
3.1,1.6226783968719452
3.105,1.5298142717497556
3.11,1.3734115347018572
3.115,1.4076246334310851
3.12,1.5689149560117301
3.125,1.8035190615835777
3.13,2.1603128054740957
3.1350000000000002,2.771260997067449
3.14,3.2404692082111435
3.145,3.225806451612903
3.15,2.6099706744868034
3.1550000000000002,1.7741935483870968
3.16,1.5053763440860215
3.165,1.5884652981427174
3.17,1.7057673509286413
3.1750000000000003,1.7448680351906158
3.18,1.739980449657869
3.185,1.6911045943304008
3.19,1.6177908113391983
3.1950000000000003,1.6031280547409579
3.2,1.66177908113392
3.205,1.66177908113392
3.21,1.6031280547409579
3.215,1.5835777126099706
3.22,1.6275659824046922
3.225,1.6422287390029326
3.23,1.598240469208211
3.235,1.573802541544477
3.24,1.6275659824046922
3.245,1.6373411534701858
3.25,1.5835777126099706
3.255,1.5786901270772238
3.2600000000000002,1.6471163245356795
3.265,1.6666666666666667
3.27,1.6275659824046922
3.275,1.6129032258064515
3.2800000000000002,1.66177908113392
3.285,1.6764418377321604
3.29,1.632453567937439
3.295,1.6129032258064515
3.3000000000000003,1.6666666666666667
3.305,1.6813294232649072
3.31,1.6373411534701858
3.315,1.6275659824046922
3.3200000000000003,1.6813294232649072
3.325,1.7008797653958945
3.33,1.656891495601173
3.335,1.632453567937439
3.34,1.6813294232649072
3.345,1.6959921798631477
3.35,1.6520039100684263
3.355,1.6422287390029326
3.36,1.6959921798631477
3.365,1.715542521994135
3.37,1.66177908113392
3.375,1.6422287390029326
3.38,1.7057673509286413
3.3850000000000002,1.7253176930596286
3.39,1.6813294232649072
3.395,1.6666666666666667
3.4,1.7204301075268817
3.4050000000000002,1.7350928641251222
3.41,1.6959921798631477
3.415,1.6813294232649072
3.42,1.7204301075268817
3.4250000000000003,1.715542521994135
3.43,1.656891495601173
3.435,1.6275659824046922
3.44,1.6666666666666667
3.4450000000000003,1.6715542521994136
3.45,1.6080156402737047
3.455,1.5835777126099706
3.46,1.632453567937439
3.465,1.656891495601173
3.47,1.6177908113391983
3.475,1.6031280547409579
3.48,1.6422287390029326
3.485,1.6520039100684263
3.49,1.6129032258064515
3.495,1.5933528836754642
3.5,1.6422287390029326
3.505,1.66177908113392
3.5100000000000002,1.6177908113391983
3.515,1.5933528836754642
3.52,1.632453567937439
3.525,1.6422287390029326
3.5300000000000002,1.5933528836754642
3.535,1.5835777126099706
3.54,1.6275659824046922
3.545,1.632453567937439
3.5500000000000003,1.5835777126099706
3.555,1.5640273704789833
3.56,1.6177908113391983
3.565,1.6373411534701858
3.5700000000000003,1.5933528836754642
3.575,1.5786901270772238
3.58,1.6275659824046922
3.585,1.6373411534701858
3.59,1.5835777126099706
3.595,1.5640273704789833
3.6,1.6080156402737047
3.605,1.6177908113391983
3.61,1.573802541544477
3.615,1.5640273704789833
3.62,1.6129032258064515
3.625,1.6226783968719452
3.63,1.573802541544477
3.6350000000000002,1.5542521994134897
3.64,1.6080156402737047
3.645,1.6275659824046922
3.65,1.5786901270772238
3.6550000000000002,1.5542521994134897
3.66,1.6031280547409579
3.665,1.632453567937439
3.67,1.6031280547409579
3.6750000000000003,1.5933528836754642
3.68,1.6471163245356795
3.685,1.6520039100684263
3.69,1.5884652981427174
3.6950000000000003,1.598240469208211
3.7,1.6666666666666667
3.705,1.6911045943304008
3.71,1.6177908113391983
3.715,1.5591397849462365
3.72,1.6031280547409579
3.725,1.6275659824046922
3.73,1.5884652981427174
3.735,1.5786901270772238
3.74,1.6177908113391983
3.745,1.6177908113391983
3.75,1.5689149560117301
3.755,1.5591397849462365
3.7600000000000002,1.6080156402737047
3.765,1.6226783968719452
3.77,1.573802541544477
3.775,1.5591397849462365
3.7800000000000002,1.6129032258064515
3.785,1.632453567937439
3.79,1.5933528836754642
3.795,1.573802541544477
3.8000000000000003,1.5884652981427174
3.805,1.466275659824047
3.81,1.3440860215053763
3.815,1.3978494623655915
3.8200000000000003,1.5591397849462365
3.825,1.8279569892473118
3.83,2.19941348973607
3.835,2.90811339198436
3.84,3.2355816226783967
3.845,3.167155425219941
3.85,2.350928641251222
3.855,1.6422287390029326
3.86,1.4858260019550342
3.865,1.5884652981427174
3.87,1.6911045943304008
3.875,1.7057673509286413
3.88,1.7057673509286413
3.8850000000000002,1.6666666666666667
3.89,1.5884652981427174
3.895,1.5591397849462365
3.9,1.6031280547409579
3.9050000000000002,1.6129032258064515
3.91,1.5640273704789833
3.915,1.544477028347996
3.92,1.5884652981427174
3.9250000000000003,1.6129032258064515
3.93,1.5689149560117301
3.935,1.5493646138807429
3.94,1.6031280547409579
3.9450000000000003,1.6080156402737047
3.95,1.5542521994134897
3.955,1.544477028347996
3.96,1.6031280547409579
3.9650000000000003,1.6177908113391983
3.97,1.573802541544477
3.975,1.5591397849462365
3.98,1.6129032258064515
3.985,1.6275659824046922
3.99,1.5835777126099706
3.995,1.5689149560117301
4.0,1.6275659824046922
4.005,1.6422287390029326
4.01,1.5884652981427174
4.015,1.5689149560117301
4.0200000000000005,1.632453567937439
4.025,1.656891495601173
4.03,1.6080156402737047
4.035,1.5835777126099706
4.04,1.632453567937439
4.045,1.6520039100684263
4.05,1.6031280547409579
4.055,1.5884652981427174
4.0600000000000005,1.6520039100684263
4.065,1.6715542521994136
4.07,1.6373411534701858
4.075,1.6226783968719452
4.08,1.6666666666666667
4.085,1.686217008797654
4.09,1.6422287390029326
4.095,1.632453567937439
4.1,1.6959921798631477
4.105,1.710654936461388
4.11,1.66177908113392
4.115,1.6471163245356795
4.12,1.6959921798631477
4.125,1.6959921798631477
4.13,1.6471163245356795
4.135,1.6129032258064515
4.14,1.6471163245356795
4.1450000000000005,1.6520039100684263
4.15,1.6080156402737047
4.155,1.5835777126099706
4.16,1.6275659824046922
4.165,1.6520039100684263
4.17,1.6080156402737047
4.175,1.5835777126099706
4.18,1.6275659824046922
4.1850000000000005,1.6422287390029326
4.19,1.598240469208211
4.195,1.5835777126099706
4.2,1.6373411534701858
4.205,1.656891495601173
4.21,1.6080156402737047
4.215,1.5835777126099706
4.22,1.632453567937439
4.225,1.6520039100684263
4.23,1.6031280547409579
4.235,1.5786901270772238
4.24,1.6275659824046922
4.245,1.6422287390029326
4.25,1.5933528836754642
4.255,1.5689149560117301
4.26,1.6129032258064515
4.265,1.632453567937439
4.2700000000000005,1.5933528836754642
4.275,1.5689149560117301
4.28,1.6080156402737047
4.285,1.6226783968719452
4.29,1.5835777126099706
4.295,1.5689149560117301
4.3,1.6177908113391983
4.305,1.6275659824046922
4.3100000000000005,1.5835777126099706
4.315,1.5640273704789833
4.32,1.6080156402737047
4.325,1.6226783968719452
4.33,1.5835777126099706
4.335,1.573802541544477
4.34,1.6177908113391983
4.345,1.6226783968719452
4.3500000000000005,1.5786901270772238
4.355,1.5835777126099706
4.36,1.6373411534701858
4.365,1.66177908113392
4.37,1.6177908113391983
4.375,1.5884652981427174
4.38,1.6471163245356795
4.385,1.6813294232649072
4.39,1.656891495601173
4.3950000000000005,1.6422287390029326
4.4,1.6471163245356795
4.405,1.6177908113391983
4.41,1.5640273704789833
4.415,1.5493646138807429
4.42,1.6226783968719452
4.425,1.6471163245356795
4.43,1.5933528836754642
4.4350000000000005,1.5640273704789833
4.44,1.6129032258064515
4.445,1.632453567937439
4.45,1.5786901270772238
4.455,1.5542521994134897
4.46,1.598240469208211
4.465,1.6226783968719452
4.47,1.5786901270772238
4.4750000000000005,1.5640273704789833
4.48,1.6129032258064515
4.485,1.6226783968719452
4.49,1.520039100684262
4.495,1.3587487781036167
4.5,1.3734115347018572
4.505,1.490713587487781
4.51,1.598240469208211
4.515,1.9012707722385143
4.5200000000000005,2.4144672531769307
4.525,3.2355816226783967
4.53,3.2453567937438903
4.535,3.142717497556207
4.54,2.3362658846529816
4.545,1.6129032258064515
4.55,1.3343108504398826
4.555,1.4173998044965788
4.5600000000000005,1.6422287390029326
4.565,1.7350928641251222
4.57,1.6471163245356795
4.575,1.5689149560117301
4.58,1.5835777126099706
4.585,1.5933528836754642
4.59,1.5395894428152492
4.595,1.520039100684262
4.6000000000000005,1.573802541544477
4.605,1.5933528836754642
4.61,1.5493646138807429
4.615,1.520039100684262
4.62,1.5786901270772238
4.625,1.6031280547409579
4.63,1.5591397849462365
4.635,1.5395894428152492
4.64,1.5884652981427174
4.6450000000000005,1.6080156402737047
4.65,1.5640273704789833
4.655,1.5395894428152492
4.66,1.5933528836754642
4.665,1.6275659824046922
4.67,1.5835777126099706
4.675,1.5591397849462365
4.68,1.6080156402737047
4.6850000000000005,1.632453567937439
4.69,1.5884652981427174
4.695,1.5689149560117301
4.7,1.6226783968719452
4.705,1.6471163245356795
4.71,1.6031280547409579
4.715,1.5786901270772238
4.72,1.6275659824046922
4.7250000000000005,1.6373411534701858
4.73,1.598240469208211
4.735,1.5786901270772238
4.74,1.6177908113391983
4.745,1.632453567937439
4.75,1.5933528836754642
4.755,1.5835777126099706
4.76,1.6422287390029326
4.765,1.66177908113392
4.7700000000000005,1.6275659824046922
4.775,1.6129032258064515
4.78,1.6764418377321604
4.785,1.7008797653958945
4.79,1.656891495601173
4.795,1.6422287390029326
4.8,1.6911045943304008
4.805,1.7008797653958945
4.8100000000000005,1.656891495601173
4.815,1.632453567937439
4.82,1.686217008797654
4.825,1.6813294232649072
4.83,1.6177908113391983
4.835,1.5933528836754642
4.84,1.6422287390029326
4.845,1.656891495601173
4.8500000000000005,1.6031280547409579
4.855,1.5884652981427174
4.86,1.6373411534701858
4.865,1.66177908113392
4.87,1.6080156402737047
4.875,1.5786901270772238
4.88,1.6275659824046922
4.885,1.6520039100684263
4.89,1.6129032258064515
4.8950000000000005,1.573802541544477
4.9,1.6080156402737047
4.905,1.6226783968719452
4.91,1.5884652981427174
4.915,1.573802541544477
4.92,1.6373411534701858
4.925,1.6471163245356795
4.93,1.598240469208211
4.9350000000000005,1.5786901270772238
4.94,1.6226783968719452
4.945,1.6373411534701858
4.95,1.5884652981427174
4.955,1.5640273704789833
4.96,1.6031280547409579
4.965,1.6177908113391983
4.97,1.5786901270772238
4.9750000000000005,1.5689149560117301
4.98,1.6275659824046922
4.985,1.6373411534701858
4.99,1.5884652981427174
4.995,1.5835777126099706
5.0,1.6373411534701858
5.005,1.656891495601173
5.01,1.6177908113391983
5.015,1.5884652981427174
5.0200000000000005,1.6226783968719452
5.025,1.6471163245356795
5.03,1.6129032258064515
5.035,1.6080156402737047
5.04,1.66177908113392
5.045,1.6911045943304008
5.05,1.6422287390029326
5.055,1.598240469208211
5.0600000000000005,1.6422287390029326
5.065,1.6813294232649072
5.07,1.66177908113392
5.075,1.632453567937439
5.08,1.6373411534701858
5.085,1.6422287390029326
5.09,1.6031280547409579
5.095,1.5835777126099706
5.1000000000000005,1.632453567937439
5.105,1.6471163245356795
5.11,1.5884652981427174
5.115,1.5640273704789833
5.12,1.598240469208211
5.125,1.6177908113391983
5.13,1.5835777126099706
5.135,1.5640273704789833
5.14,1.6226783968719452
5.1450000000000005,1.6471163245356795
5.15,1.6031280547409579
5.155,1.573802541544477
5.16,1.6226783968719452
5.165,1.632453567937439
5.17,1.490713587487781
5.175,1.3440860215053763
5.18,1.4271749755620724
5.1850000000000005,1.598240469208211
5.19,1.8132942326490713
5.195,2.2434017595307916
5.2,2.9472140762463344
5.205,3.2502443792766376
5.21,3.2453567937438903
5.215,2.9667644183773216
5.22,2.018572825024438
5.2250000000000005,1.436950146627566
5.23,1.3782991202346042
5.235,1.5835777126099706
5.24,1.7644183773216031
5.245,1.76930596285435
5.25,1.6520039100684263
5.255,1.5835777126099706
5.26,1.6129032258064515
5.265,1.6373411534701858
5.2700000000000005,1.6031280547409579
5.275,1.5689149560117301
5.28,1.6080156402737047
5.285,1.6275659824046922
5.29,1.5884652981427174
5.295,1.5640273704789833
5.3,1.6129032258064515
5.305,1.6422287390029326
5.3100000000000005,1.6031280547409579
5.315,1.5884652981427174
5.32,1.6373411534701858
5.325,1.6715542521994136
5.33,1.632453567937439
5.335,1.6177908113391983
5.34,1.6715542521994136
5.345,1.7057673509286413
5.3500000000000005,1.66177908113392
5.355,1.6422287390029326
5.36,1.7057673509286413
5.365,1.7350928641251222
5.37,1.6959921798631477
5.375,1.6764418377321604
5.38,1.7204301075268817
5.385,1.7350928641251222
5.39,1.686217008797654
5.3950000000000005,1.6715542521994136
5.4,1.715542521994135
5.405,1.739980449657869
5.41,1.7008797653958945
5.415,1.6715542521994136
5.42,1.7204301075268817
5.425,1.7497556207233627
5.43,1.710654936461388
5.4350000000000005,1.6813294232649072
5.44,1.7253176930596286
5.445,1.7448680351906158
5.45,1.710654936461388
5.455,1.6959921798631477
5.46,1.739980449657869
5.465,1.76930596285435
5.47,1.7350928641251222
5.4750000000000005,1.7057673509286413
5.48,1.7448680351906158
5.485,1.7546432062561095
5.49,1.6959921798631477
5.495,1.656891495601173
5.5,1.6911045943304008
5.505,1.6959921798631477
5.51,1.6422287390029326
5.515,1.6031280547409579
5.5200000000000005,1.6422287390029326
5.525,1.66177908113392
5.53,1.6129032258064515
5.535,1.5884652981427174
5.54,1.6373411534701858
5.545,1.66177908113392
5.55,1.6129032258064515
5.555,1.5835777126099706
5.5600000000000005,1.6373411534701858
5.565,1.66177908113392
5.57,1.6177908113391983
5.575,1.5835777126099706
5.58,1.6226783968719452
5.585,1.6422287390029326
5.59,1.6031280547409579
5.595,1.573802541544477
5.6000000000000005,1.6177908113391983
5.605,1.6373411534701858
5.61,1.5933528836754642
5.615,1.5689149560117301
5.62,1.6080156402737047
5.625,1.6275659824046922
5.63,1.598240469208211
5.635,1.5786901270772238
5.64,1.6275659824046922
5.6450000000000005,1.6471163245356795
5.65,1.6080156402737047
5.655,1.573802541544477
5.66,1.6080156402737047
5.665,1.632453567937439
5.67,1.5933528836754642
5.675,1.5640273704789833
5.68,1.6080156402737047
5.6850000000000005,1.6373411534701858
5.69,1.5933528836754642
5.695,1.5689149560117301
5.7,1.6080156402737047
5.705,1.6226783968719452
5.71,1.5835777126099706
5.715,1.5591397849462365
5.72,1.6080156402737047
5.7250000000000005,1.6373411534701858
5.73,1.5933528836754642
5.735,1.5884652981427174
5.74,1.66177908113392
5.745,1.6911045943304008
5.75,1.6520039100684263
5.755,1.6177908113391983
5.76,1.6422287390029326
5.765,1.6715542521994136
5.7700000000000005,1.6422287390029326
5.775,1.6373411534701858
5.78,1.6813294232649072
5.785,1.6666666666666667
5.79,1.6031280547409579
5.795,1.5884652981427174
5.8,1.6471163245356795
5.805,1.686217008797654
5.8100000000000005,1.6422287390029326
5.815,1.6031280547409579
5.82,1.6373411534701858
5.825,1.656891495601173
5.83,1.6129032258064515
5.835,1.5933528836754642
5.84,1.6422287390029326
5.845,1.6666666666666667
5.8500000000000005,1.6275659824046922
5.855,1.598240469208211
5.86,1.6373411534701858
5.865,1.6666666666666667
5.87,1.6226783968719452
5.875,1.5298142717497556
5.88,1.436950146627566
5.885,1.4418377321603129
5.89,1.5053763440860215
5.8950000000000005,1.6666666666666667
5.9,2.067448680351906
5.905,2.6295210166177907
5.91,3.2111436950146626
5.915,3.2111436950146626
5.92,3.113391984359726
5.925,2.321603128054741
5.93,1.6764418377321604
5.9350000000000005,1.544477028347996
5.94,1.7448680351906158
5.945,1.881720430107527
5.95,1.8035190615835777
5.955,1.7008797653958945
5.96,1.6911045943304008
5.965,1.6911045943304008
5.97,1.632453567937439
5.9750000000000005,1.5884652981427174
5.98,1.6226783968719452
5.985,1.632453567937439
5.99,1.5835777126099706
5.995,1.5542521994134897
6.0,1.5933528836754642
6.005,1.6177908113391983
6.01,1.5689149560117301
6.015000000000001,1.5249266862170088
6.0200000000000005,1.5689149560117301
6.025,1.6031280547409579
6.03,1.5786901270772238
6.035,1.5640273704789833
6.04,1.6129032258064515
6.045,1.6373411534701858
6.05,1.5933528836754642
6.055,1.5689149560117301
6.0600000000000005,1.6129032258064515
6.065,1.6422287390029326
6.07,1.6080156402737047
6.075,1.5835777126099706
6.08,1.632453567937439
6.085,1.66177908113392
6.09,1.6080156402737047
6.095,1.5884652981427174
6.1000000000000005,1.6373411534701858
6.105,1.66177908113392
6.11,1.6226783968719452
6.115,1.5933528836754642
6.12,1.6373411534701858
6.125,1.6666666666666667
6.13,1.6226783968719452
6.135,1.5933528836754642
6.140000000000001,1.6422287390029326
6.1450000000000005,1.6764418377321604
6.15,1.6373411534701858
6.155,1.6129032258064515
6.16,1.6666666666666667
6.165,1.7008797653958945
6.17,1.66177908113392
6.175,1.632453567937439
6.18,1.6813294232649072
6.1850000000000005,1.6959921798631477
6.19,1.6471163245356795
6.195,1.6129032258064515
6.2,1.6520039100684263
6.205,1.66177908113392
6.21,1.6031280547409579
6.215,1.5640273704789833
6.22,1.6031280547409579
6.2250000000000005,1.6226783968719452
6.23,1.573802541544477
6.235,1.544477028347996
6.24,1.5933528836754642
6.245,1.6177908113391983
6.25,1.5786901270772238
6.255,1.5591397849462365
6.26,1.598240469208211
6.265000000000001,1.6226783968719452
6.2700000000000005,1.573802541544477
6.275,1.5493646138807429
6.28,1.598240469208211
6.285,1.6226783968719452
6.29,1.5835777126099706
6.295,1.5591397849462365
6.3,1.6080156402737047
6.305,1.6373411534701858
6.3100000000000005,1.5835777126099706
6.315,1.5542521994134897
6.32,1.6031280547409579
6.325,1.6226783968719452
6.33,1.5835777126099706
6.335,1.5542521994134897
6.34,1.598240469208211
6.345,1.6226783968719452
6.3500000000000005,1.5689149560117301
6.355,1.544477028347996
6.36,1.5933528836754642
6.365,1.6177908113391983
6.37,1.5786901270772238
6.375,1.5493646138807429
6.38,1.5933528836754642
6.385,1.6129032258064515
6.390000000000001,1.5591397849462365
6.3950000000000005,1.5298142717497556
6.4,1.5786901270772238
6.405,1.6177908113391983
6.41,1.5835777126099706
6.415,1.5542521994134897
6.42,1.598240469208211
6.425,1.6226783968719452
6.43,1.5786901270772238
6.4350000000000005,1.544477028347996
6.44,1.5933528836754642
6.445,1.6275659824046922
6.45,1.5884652981427174
6.455,1.5640273704789833
6.46,1.6080156402737047
6.465,1.632453567937439
6.47,1.6031280547409579
6.4750000000000005,1.6031280547409579
6.48,1.66177908113392
6.485,1.686217008797654
6.49,1.6422287390029326
6.495,1.5933528836754642
6.5,1.632453567937439
6.505,1.6764418377321604
6.51,1.6471163245356795
6.515000000000001,1.6275659824046922
6.5200000000000005,1.6373411534701858
6.525,1.6226783968719452
6.53,1.5786901270772238
6.535,1.5640273704789833
6.54,1.6226783968719452
6.545,1.66177908113392
6.55,1.6129032258064515
6.555,1.5689149560117301
6.5600000000000005,1.6031280547409579
6.565,1.632453567937439
6.57,1.5933528836754642
6.575,1.5640273704789833
6.58,1.6080156402737047
6.585,1.6373411534701858
6.59,1.5933528836754642
6.595,1.5640273704789833
6.6000000000000005,1.6129032258064515
6.605,1.6373411534701858
6.61,1.573802541544477
6.615,1.4173998044965788
6.62,1.35386119257087
6.625,1.4418377321603129
6.63,1.520039100684262
6.635,1.7448680351906158
6.640000000000001,2.2189638318670575
6.6450000000000005,2.9374389051808407
6.65,3.2355816226783967
6.655,3.201368523949169
6.66,2.517106549364614
6.665,1.7741935483870968
6.67,1.4613880742913001
6.675,1.5004887585532747
6.68,1.710654936461388
6.6850000000000005,1.7888563049853372
6.69,1.7008797653958945
6.695,1.6080156402737047
6.7,1.6129032258064515
6.705,1.6275659824046922
6.71,1.5786901270772238
6.715,1.5395894428152492
6.72,1.573802541544477
6.7250000000000005,1.598240469208211
6.73,1.5591397849462365
6.735,1.5298142717497556
6.74,1.573802541544477
6.745,1.598240469208211
6.75,1.5591397849462365
6.755,1.5347018572825024
6.76,1.5786901270772238
6.765000000000001,1.6080156402737047
6.7700000000000005,1.5786901270772238
6.775,1.5542521994134897
6.78,1.598240469208211
6.785,1.6226783968719452
6.79,1.5884652981427174
6.795,1.5640273704789833
6.8,1.6129032258064515
6.805,1.6373411534701858
6.8100000000000005,1.598240469208211
6.815,1.5689149560117301
6.82,1.6080156402737047
6.825,1.632453567937439
6.83,1.5884652981427174
6.835,1.5689149560117301
6.84,1.6226783968719452
6.845,1.6520039100684263
6.8500000000000005,1.6031280547409579
6.855,1.5689149560117301
6.86,1.6177908113391983
6.865,1.6422287390029326
6.87,1.6080156402737047
6.875,1.5835777126099706
6.88,1.6275659824046922
6.885,1.656891495601173
6.890000000000001,1.6226783968719452
6.8950000000000005,1.598240469208211
6.9,1.6520039100684263
6.905,1.6911045943304008
6.91,1.6666666666666667
6.915,1.6422287390029326
6.92,1.686217008797654
6.925,1.7057673509286413
6.93,1.66177908113392
6.9350000000000005,1.6275659824046922
6.94,1.6715542521994136
6.945,1.686217008797654
6.95,1.6373411534701858
6.955,1.598240469208211
6.96,1.632453567937439
6.965,1.6471163245356795
6.97,1.598240469208211
6.9750000000000005,1.5689149560117301
6.98,1.6177908113391983
6.985,1.6520039100684263
6.99,1.6129032258064515
6.995,1.5786901270772238
7.0,1.6226783968719452
7.005,1.6471163245356795
7.01,1.6080156402737047
7.015000000000001,1.5786901270772238
7.0200000000000005,1.6226783968719452
7.025,1.6520039100684263
7.03,1.6031280547409579
7.035,1.573802541544477
7.04,1.6226783968719452
7.045,1.66177908113392
7.05,1.6129032258064515
7.055,1.5835777126099706
7.0600000000000005,1.6177908113391983
7.065,1.6422287390029326
7.07,1.6031280547409579
7.075,1.5786901270772238
7.08,1.6129032258064515
7.085,1.632453567937439
7.09,1.5884652981427174
7.095,1.5689149560117301
7.1000000000000005,1.6177908113391983
7.105,1.6373411534701858
7.11,1.598240469208211
7.115,1.5640273704789833
7.12,1.6129032258064515
7.125,1.6422287390029326
7.13,1.6031280547409579
7.135,1.573802541544477
7.140000000000001,1.6080156402737047
7.1450000000000005,1.632453567937439
7.15,1.5933528836754642
7.155,1.573802541544477
7.16,1.6177908113391983
7.165,1.6422287390029326
7.17,1.6080156402737047
7.175,1.5786901270772238
7.18,1.6275659824046922
7.1850000000000005,1.656891495601173
7.19,1.6226783968719452
7.195,1.5884652981427174
7.2,1.6422287390029326
7.205,1.686217008797654
7.21,1.6520039100684263
7.215,1.6177908113391983
7.22,1.656891495601173
7.2250000000000005,1.6715542521994136
7.23,1.632453567937439
7.235,1.6226783968719452
7.24,1.686217008797654
7.245,1.715542521994135
7.25,1.632453567937439
7.255,1.5786901270772238
7.26,1.6177908113391983
7.265000000000001,1.66177908113392
7.2700000000000005,1.6422287390029326
7.275,1.6129032258064515
7.28,1.632453567937439
7.285,1.6422287390029326
7.29,1.598240469208211
7.295,1.5689149560117301
7.3,1.6129032258064515
7.305,1.6471163245356795
7.3100000000000005,1.6080156402737047
7.315,1.5835777126099706
7.32,1.6275659824046922
7.325,1.6422287390029326
7.33,1.598240469208211
7.335,1.5591397849462365
7.34,1.5102639296187683
7.345,1.4076246334310851
7.3500000000000005,1.3929618768328447
7.355,1.4760508308895406
7.36,1.7302052785923754
7.365,2.1603128054740957
7.37,2.697947214076246
7.375,3.2355816226783967
7.38,3.23069403714565
7.385,3.0547409579667644
7.390000000000001,2.1652003910068425
7.3950000000000005,1.5053763440860215
7.4,1.4027370478983383
7.405,1.5786901270772238
7.41,1.6911045943304008
7.415,1.6959921798631477
7.42,1.6911045943304008
7.425,1.6666666666666667
7.43,1.6031280547409579
7.4350000000000005,1.5640273704789833
7.44,1.6031280547409579
7.445,1.632453567937439
7.45,1.5835777126099706
7.455,1.5493646138807429
7.46,1.5933528836754642
7.465,1.6177908113391983
7.47,1.573802541544477
7.4750000000000005,1.5395894428152492
7.48,1.5835777126099706
7.485,1.6226783968719452
7.49,1.5884652981427174
7.495,1.5689149560117301
7.5,1.6226783968719452
7.505,1.656891495601173
7.51,1.6080156402737047
7.515000000000001,1.573802541544477
7.5200000000000005,1.6129032258064515
7.525,1.6520039100684263
7.53,1.6226783968719452
7.535,1.598240469208211
7.54,1.632453567937439
7.545,1.66177908113392
7.55,1.6275659824046922
7.555,1.598240469208211
7.5600000000000005,1.6422287390029326
7.565,1.6715542521994136
7.57,1.6275659824046922
7.575,1.5933528836754642
7.58,1.632453567937439
7.585,1.66177908113392
7.59,1.6275659824046922
7.595,1.6080156402737047
7.6000000000000005,1.656891495601173
7.605,1.6813294232649072
7.61,1.6373411534701858
7.615,1.6129032258064515
7.62,1.656891495601173
7.625,1.7008797653958945
7.63,1.6666666666666667
7.635,1.6373411534701858
7.640000000000001,1.6764418377321604
7.6450000000000005,1.715542521994135
7.65,1.6813294232649072
7.655,1.6471163245356795
7.66,1.6813294232649072
7.665,1.710654936461388
7.67,1.66177908113392
7.675,1.6226783968719452
7.68,1.66177908113392
7.6850000000000005,1.6813294232649072
7.69,1.6373411534701858
7.695,1.598240469208211
7.7,1.6471163245356795
7.705,1.6715542521994136
7.71,1.6373411534701858
7.715,1.6031280547409579
7.72,1.6422287390029326
7.7250000000000005,1.66177908113392
7.73,1.6226783968719452
7.735,1.5884652981427174
7.74,1.632453567937439
7.745,1.66177908113392
7.75,1.6226783968719452
7.755,1.598240469208211
7.76,1.6422287390029326
7.765000000000001,1.6715542521994136
7.7700000000000005,1.6226783968719452
7.775,1.5884652981427174
7.78,1.6275659824046922
7.785,1.66177908113392
7.79,1.6226783968719452
7.795,1.5884652981427174
7.8,1.6275659824046922
7.805000000000001,1.6520039100684263
7.8100000000000005,1.6177908113391983
7.815,1.5933528836754642
7.82,1.6373411534701858
7.825,1.6666666666666667
7.83,1.6226783968719452
7.835,1.5884652981427174
7.84,1.6275659824046922
7.845,1.6520039100684263
7.8500000000000005,1.6129032258064515
7.855,1.5835777126099706
7.86,1.6275659824046922
7.865,1.656891495601173
7.87,1.6129032258064515
7.875,1.5835777126099706
7.88,1.6275659824046922
7.885,1.6666666666666667
7.890000000000001,1.632453567937439
7.8950000000000005,1.5933528836754642
7.9,1.632453567937439
7.905,1.6666666666666667
7.91,1.632453567937439
7.915,1.598240469208211
7.92,1.6422287390029326
7.925,1.6715542521994136
7.930000000000001,1.6275659824046922
7.9350000000000005,1.598240469208211
7.94,1.6471163245356795
7.945,1.6715542521994136
7.95,1.6177908113391983
7.955,1.5884652981427174
7.96,1.6373411534701858
7.965,1.6764418377321604
7.97,1.6422287390029326
7.9750000000000005,1.6031280547409579
7.98,1.6422287390029326
7.985,1.7008797653958945
7.99,1.6715542521994136
7.995,1.6520039100684263
8.0,1.7057673509286413
8.005,1.7253176930596286
8.01,1.6764418377321604
8.015,1.6422287390029326
8.02,1.6911045943304008
8.025,1.7448680351906158
8.03,1.7008797653958945
8.035,1.6275659824046922
8.040000000000001,1.6471163245356795
8.045,1.686217008797654
8.05,1.66177908113392
8.055,1.6471163245356795
8.06,1.686217008797654
8.065,1.6959921798631477
8.07,1.6520039100684263
8.075,1.6226783968719452
8.08,1.6666666666666667
8.085,1.6959921798631477
8.09,1.6520039100684263
8.095,1.6275659824046922
8.1,1.6764418377321604
8.105,1.710654936461388
8.11,1.6715542521994136
8.115,1.6373411534701858
8.120000000000001,1.6471163245356795
8.125,1.5542521994134897
8.13,1.412512218963832
8.135,1.4467253176930597
8.14,1.6275659824046922
8.145,1.9305962854349952
8.15,2.321603128054741
8.155,2.9667644183773216
8.16,3.2355816226783967
8.165000000000001,3.225806451612903
8.17,2.70772238514174
8.175,1.8572825024437927
8.18,1.5347018572825024
8.185,1.6080156402737047
8.19,1.7302052785923754
8.195,1.7595307917888563
8.2,1.7741935483870968
8.205,1.7497556207233627
8.21,1.6715542521994136
8.215,1.6129032258064515
8.22,1.6373411534701858
8.225,1.6666666666666667
8.23,1.6177908113391983
8.235,1.5786901270772238
8.24,1.6226783968719452
8.245000000000001,1.6471163245356795
8.25,1.6080156402737047
8.255,1.5640273704789833
8.26,1.6080156402737047
8.265,1.6471163245356795
8.27,1.6129032258064515
8.275,1.5884652981427174
8.28,1.6275659824046922
8.285,1.6520039100684263
8.290000000000001,1.6129032258064515
8.295,1.5884652981427174
8.3,1.6422287390029326
8.305,1.6666666666666667
8.31,1.632453567937439
8.315,1.6129032258064515
8.32,1.66177908113392
8.325,1.6911045943304008
8.33,1.6520039100684263
8.335,1.6177908113391983
8.34,1.656891495601173
8.345,1.686217008797654
8.35,1.6471163245356795
8.355,1.6177908113391983
8.36,1.6666666666666667
8.365,1.7008797653958945
8.370000000000001,1.66177908113392
8.375,1.632453567937439
8.38,1.6715542521994136
8.385,1.7008797653958945
8.39,1.6520039100684263
8.395,1.6275659824046922
8.4,1.6764418377321604
8.405,1.710654936461388
8.41,1.6764418377321604
8.415000000000001,1.6520039100684263
8.42,1.6959921798631477
8.425,1.7253176930596286
8.43,1.6959921798631477
8.435,1.656891495601173
8.44,1.6911045943304008
8.445,1.710654936461388
8.45,1.6666666666666667
8.455,1.6275659824046922
8.46,1.6520039100684263
8.465,1.6666666666666667
8.47,1.6129032258064515
8.475,1.5786901270772238
8.48,1.6226783968719452
8.485,1.6520039100684263
8.49,1.6129032258064515
8.495000000000001,1.573802541544477
8.5,1.6080156402737047
8.505,1.6422287390029326
8.51,1.6080156402737047
8.515,1.573802541544477
8.52,1.6129032258064515
8.525,1.6373411534701858
8.53,1.5933528836754642
8.535,1.5640273704789833
8.540000000000001,1.6031280547409579
8.545,1.6471163245356795
8.55,1.598240469208211
8.555,1.5640273704789833
8.56,1.6031280547409579
8.565,1.6422287390029326
8.57,1.6031280547409579
8.575000000000001,1.573802541544477
8.58,1.6080156402737047
8.585,1.632453567937439
8.59,1.5884652981427174
8.595,1.5591397849462365
8.6,1.5933528836754642
8.605,1.6177908113391983
8.61,1.5835777126099706
8.615,1.5493646138807429
8.620000000000001,1.5884652981427174
8.625,1.6226783968719452
8.63,1.598240469208211
8.635,1.5640273704789833
8.64,1.598240469208211
8.645,1.6226783968719452
8.65,1.5835777126099706
8.655,1.5542521994134897
8.66,1.5933528836754642
8.665000000000001,1.6275659824046922
8.67,1.598240469208211
8.675,1.5689149560117301
8.68,1.6080156402737047
8.685,1.6422287390029326
8.69,1.6080156402737047
8.695,1.5835777126099706
8.700000000000001,1.6226783968719452
8.705,1.6520039100684263
8.71,1.6080156402737047
8.715,1.5786901270772238
8.72,1.6129032258064515
8.725,1.6520039100684263
8.73,1.6129032258064515
8.735,1.5835777126099706
8.74,1.6226783968719452
8.745000000000001,1.6520039100684263
8.75,1.6129032258064515
8.755,1.5786901270772238
8.76,1.6129032258064515
8.765,1.6471163245356795
8.77,1.6129032258064515
8.775,1.573802541544477
8.78,1.6129032258064515
8.785,1.6373411534701858
8.790000000000001,1.6031280547409579
8.795,1.573802541544477
8.8,1.6177908113391983
8.805,1.6764418377321604
8.81,1.656891495601173
8.815,1.6129032258064515
8.82,1.656891495601173
8.825000000000001,1.6764418377321604
8.83,1.6275659824046922
8.835,1.6080156402737047
8.84,1.656891495601173
8.845,1.7057673509286413
8.85,1.66177908113392
8.855,1.5835777126099706
8.86,1.598240469208211
8.865,1.6471163245356795
8.870000000000001,1.6177908113391983
8.875,1.5933528836754642
8.88,1.6373411534701858
8.885,1.656891495601173
8.89,1.6080156402737047
8.895,1.573802541544477
8.9,1.6226783968719452
8.905,1.6520039100684263
8.91,1.6129032258064515
8.915000000000001,1.5884652981427174
8.92,1.6226783968719452
8.925,1.6422287390029326
8.93,1.6129032258064515
8.935,1.5835777126099706
8.94,1.598240469208211
8.945,1.5151515151515151
8.950000000000001,1.3782991202346042
8.955,1.4076246334310851
8.96,1.573802541544477
8.965,1.8621700879765395
8.97,2.2482893450635384
8.975,2.8641251221896384
8.98,3.2355816226783967
8.985,3.220918866080156
8.99,2.6050830889540566
8.995000000000001,1.7790811339198436
9.0,1.5004887585532747
9.005,1.5933528836754642
9.01,1.7204301075268817
9.015,1.7497556207233627
9.02,1.7448680351906158
9.025,1.715542521994135
9.03,1.6471163245356795
9.035,1.5933528836754642
9.040000000000001,1.6275659824046922
9.045,1.6520039100684263
9.05,1.6031280547409579
9.055,1.5640273704789833
9.06,1.6080156402737047
9.065,1.6373411534701858
9.07,1.598240469208211
9.075000000000001,1.5640273704789833
9.08,1.6080156402737047
9.085,1.6373411534701858
9.09,1.598240469208211
9.095,1.5689149560117301
9.1,1.6080156402737047
9.105,1.6471163245356795
9.11,1.6129032258064515
9.115,1.5786901270772238
9.120000000000001,1.6226783968719452
9.125,1.66177908113392
9.13,1.632453567937439
9.135,1.6031280547409579
9.14,1.6471163245356795
9.145,1.6813294232649072
9.15,1.6422287390029326
9.155,1.6129032258064515
9.16,1.66177908113392
9.165000000000001,1.7057673509286413
9.17,1.66177908113392
9.175,1.6226783968719452
9.18,1.66177908113392
9.185,1.6959921798631477
9.19,1.656891495601173
9.195,1.632453567937439
9.200000000000001,1.6764418377321604
9.205,1.710654936461388
9.21,1.6715542521994136
9.215,1.6373411534701858
9.22,1.6715542521994136
9.225,1.7008797653958945
9.23,1.6764418377321604
9.235,1.6471163245356795
9.24,1.6911045943304008
9.245000000000001,1.7302052785923754
9.25,1.686217008797654
9.255,1.6520039100684263
9.26,1.6764418377321604
9.265,1.710654936461388
9.27,1.6715542521994136
9.275,1.6275659824046922
9.28,1.6520039100684263
9.285,1.6715542521994136
9.290000000000001,1.6275659824046922
9.295,1.5786901270772238
9.3,1.6080156402737047
9.305,1.6471163245356795
9.31,1.6080156402737047
9.315,1.573802541544477
9.32,1.6031280547409579
9.325000000000001,1.6226783968719452
9.33,1.5884652981427174
9.335,1.5542521994134897
9.34,1.5933528836754642
9.345,1.6275659824046922
9.35,1.5884652981427174
9.355,1.5542521994134897
9.36,1.5933528836754642
9.365,1.6226783968719452
9.370000000000001,1.5835777126099706
9.375,1.544477028347996
9.38,1.5835777126099706
9.385,1.6226783968719452
9.39,1.5933528836754642
9.395,1.5640273704789833
9.4,1.598240469208211
9.405,1.632453567937439
9.41,1.5835777126099706
9.415000000000001,1.544477028347996
9.42,1.5835777126099706
9.425,1.6177908113391983
9.43,1.5835777126099706
9.435,1.544477028347996
9.44,1.5835777126099706
9.445,1.6177908113391983
9.450000000000001,1.5786901270772238
9.455,1.544477028347996
9.46,1.5835777126099706
9.465,1.6226783968719452
9.47,1.5884652981427174
9.475,1.5542521994134897
9.48,1.5933528836754642
9.485,1.6226783968719452
9.49,1.573802541544477
9.495000000000001,1.5493646138807429
9.5,1.5884652981427174
9.505,1.6275659824046922
9.51,1.5933528836754642
9.515,1.5542521994134897
9.52,1.5884652981427174
9.525,1.6226783968719452
9.53,1.5933528836754642
9.535,1.5640273704789833
9.540000000000001,1.6080156402737047
9.545,1.6422287390029326
9.55,1.6031280547409579
9.555,1.5591397849462365
9.56,1.598240469208211
9.565,1.6422287390029326
9.57,1.6080156402737047
9.575000000000001,1.5689149560117301
9.58,1.6031280547409579
9.585,1.6422287390029326
9.59,1.6031280547409579
9.595,1.5689149560117301
9.6,1.6129032258064515
9.605,1.6471163245356795
9.61,1.6031280547409579
9.615,1.5884652981427174
9.620000000000001,1.6520039100684263
9.625,1.6911045943304008
9.63,1.656891495601173
9.635,1.6226783968719452
9.64,1.6422287390029326
9.645,1.6764418377321604
9.65,1.66177908113392
9.655,1.6373411534701858
9.66,1.6813294232649072
9.665000000000001,1.6813294232649072
9.67,1.598240469208211
9.675,1.5640273704789833
9.68,1.6129032258064515
9.685,1.6715542521994136
9.69,1.6471163245356795
9.695,1.6031280547409579
9.700000000000001,1.6129032258064515
9.705,1.6422287390029326
9.71,1.6031280547409579
9.715,1.573802541544477
9.72,1.6129032258064515
9.725,1.6520039100684263
9.73,1.6177908113391983
9.735,1.5835777126099706
9.74,1.6275659824046922
9.745000000000001,1.6666666666666667
9.75,1.632453567937439
9.755,1.5102639296187683
9.76,1.4076246334310851
9.765,1.4516129032258065
9.77,1.5151515151515151
9.775,1.6764418377321604
9.78,2.0821114369501466
9.785,2.6588465298142716
9.790000000000001,3.23069403714565
9.795,3.225806451612903
9.8,2.8592375366568916
9.805,2.047898338220919
9.81,1.5542521994134897
9.815,1.490713587487781
9.82,1.6813294232649072
9.825000000000001,1.8181818181818181
9.83,1.7595307917888563
9.835,1.6666666666666667
9.84,1.6520039100684263
9.845,1.656891495601173
9.85,1.6177908113391983
9.855,1.573802541544477
9.86,1.6031280547409579
9.865,1.6275659824046922
9.870000000000001,1.5933528836754642
9.875,1.5591397849462365
9.88,1.6031280547409579
9.885,1.632453567937439
9.89,1.5933528836754642
9.895,1.5591397849462365
9.9,1.6031280547409579
9.905,1.6422287390029326
9.91,1.6129032258064515
9.915000000000001,1.5786901270772238
9.92,1.6129032258064515
9.925,1.6520039100684263
9.93,1.6226783968719452
9.935,1.5835777126099706
9.94,1.6226783968719452
9.945,1.6666666666666667
9.950000000000001,1.632453567937439
9.955,1.598240469208211
9.96,1.6373411534701858
9.965,1.6813294232649072
9.97,1.6471163245356795
9.975,1.6129032258064515
9.98,1.656891495601173
9.985,1.6959921798631477
9.99,1.66177908113392
9.995000000000001,1.632453567937439
10.0,1.6764418377321604
10.005,1.715542521994135
10.01,1.6715542521994136
10.015,1.6275659824046922
10.02,1.6666666666666667
10.025,1.710654936461388
10.03,1.6813294232649072
10.035,1.656891495601173
10.040000000000001,1.6959921798631477
10.045,1.739980449657869
10.05,1.710654936461388
10.055,1.6715542521994136
10.06,1.715542521994135
10.065,1.739980449657869
10.07,1.6959921798631477
10.075000000000001,1.656891495601173
10.08,1.686217008797654
10.085,1.715542521994135
10.09,1.6715542521994136
10.095,1.6275659824046922
10.1,1.656891495601173
10.105,1.6715542521994136
10.11,1.6226783968719452
10.115,1.5786901270772238
10.120000000000001,1.6177908113391983
10.125,1.6520039100684263
10.13,1.6177908113391983
10.135,1.5835777126099706
10.14,1.6226783968719452
10.145,1.66177908113392
10.15,1.6275659824046922
10.155,1.5884652981427174
10.16,1.6129032258064515
10.165000000000001,1.6422287390029326
10.17,1.6129032258064515
10.175,1.5884652981427174
10.18,1.6226783968719452
10.185,1.656891495601173
10.19,1.6226783968719452
10.195,1.5835777126099706
10.200000000000001,1.6129032258064515
10.205,1.6471163245356795
10.21,1.6177908113391983
10.215,1.5835777126099706
10.22,1.6080156402737047
10.225,1.6373411534701858
10.23,1.6080156402737047
10.235,1.5689149560117301
10.24,1.6031280547409579
10.245000000000001,1.6422287390029326
10.25,1.6080156402737047
10.255,1.5689149560117301
10.26,1.6129032258064515
10.265,1.6520039100684263
10.27,1.6129032258064515
10.275,1.573802541544477
10.28,1.6031280547409579
10.285,1.6422287390029326
10.290000000000001,1.6080156402737047
10.295,1.573802541544477
10.3,1.6080156402737047
10.305,1.6422287390029326
10.31,1.6031280547409579
10.315,1.5689149560117301
10.32,1.6080156402737047
10.325000000000001,1.6471163245356795
10.33,1.6226783968719452
10.335,1.5884652981427174
10.34,1.6129032258064515
10.345,1.6471163245356795
10.35,1.6226783968719452
10.355,1.5786901270772238
10.36,1.6129032258064515
10.365,1.656891495601173
10.370000000000001,1.6226783968719452
10.375,1.5835777126099706
10.38,1.6177908113391983
10.385,1.66177908113392
10.39,1.6471163245356795
10.395,1.6177908113391983
10.4,1.6471163245356795
10.405,1.686217008797654
10.41,1.6422287390029326
10.415000000000001,1.6031280547409579
10.42,1.656891495601173
10.425,1.7204301075268817
10.43,1.6911045943304008
10.435,1.6129032258064515
10.44,1.6031280547409579
10.445,1.632453567937439
10.450000000000001,1.6080156402737047
10.455,1.5884652981427174
10.46,1.6422287390029326
10.465,1.6715542521994136
10.47,1.6177908113391983
10.475,1.573802541544477
10.48,1.6031280547409579
10.485,1.6422287390029326
10.49,1.6177908113391983
10.495000000000001,1.5835777126099706
10.5,1.6275659824046922
10.505,1.6666666666666667
10.51,1.6373411534701858
10.515,1.6031280547409579
10.52,1.6275659824046922
10.525,1.5493646138807429
10.53,1.3929618768328447
10.535,1.3978494623655915
10.540000000000001,1.5493646138807429
10.545,1.8181818181818181
10.55,2.1700879765395893
10.555,2.7517106549364616
10.56,3.23069403714565
10.565,3.225806451612903
10.57,2.849462365591398
10.575000000000001,1.9941348973607038
10.58,1.5591397849462365
10.585,1.544477028347996
10.59,1.6520039100684263
10.595,1.7253176930596286
10.6,1.7448680351906158
10.605,1.7253176930596286
10.61,1.6422287390029326
10.615,1.5884652981427174
10.620000000000001,1.6129032258064515
10.625,1.6422287390029326
10.63,1.6031280547409579
10.635,1.5689149560117301
10.64,1.598240469208211
10.645,1.632453567937439
10.65,1.5884652981427174
10.655,1.544477028347996
10.66,1.573802541544477
10.665000000000001,1.6080156402737047
10.67,1.5835777126099706
10.675,1.544477028347996
10.68,1.5835777126099706
10.685,1.6373411534701858
10.69,1.6129032258064515
10.695,1.573802541544477
10.700000000000001,1.6080156402737047
10.705,1.6471163245356795
10.71,1.6226783968719452
10.715,1.5884652981427174
10.72,1.6275659824046922
10.725,1.66177908113392
10.73,1.632453567937439
10.735,1.6129032258064515
10.74,1.656891495601173
10.745000000000001,1.686217008797654
10.75,1.6520039100684263
10.755,1.6177908113391983
10.76,1.6471163245356795
10.765,1.6764418377321604
10.77,1.6422287390029326
10.775,1.6080156402737047
10.78,1.6422287390029326
10.785,1.6813294232649072
10.790000000000001,1.656891495601173
10.795,1.6226783968719452
10.8,1.656891495601173
10.805,1.6959921798631477
10.81,1.6666666666666667
10.815,1.6373411534701858
10.82,1.6764418377321604
10.825000000000001,1.7204301075268817
10.83,1.6959921798631477
10.835,1.656891495601173
10.84,1.686217008797654
10.845,1.715542521994135
10.85,1.6764418377321604
10.855,1.6226783968719452
10.86,1.6422287390029326
10.865,1.6715542521994136
10.870000000000001,1.6275659824046922
10.875,1.5689149560117301
10.88,1.6031280547409579
10.885,1.6471163245356795
10.89,1.6129032258064515
10.895,1.573802541544477
10.9,1.6031280547409579
10.905,1.6275659824046922
10.91,1.598240469208211
10.915000000000001,1.5689149560117301
10.92,1.598240469208211
10.925,1.6373411534701858
10.93,1.6031280547409579
10.935,1.5640273704789833
10.94,1.6031280547409579
10.945,1.6373411534701858
10.950000000000001,1.598240469208211
10.955,1.5493646138807429
10.96,1.5786901270772238
10.965,1.6226783968719452
10.97,1.5933528836754642
10.975,1.5542521994134897
10.98,1.5835777126099706
10.985,1.6275659824046922
10.99,1.6031280547409579
10.995000000000001,1.5591397849462365
11.0,1.5884652981427174
11.005,1.6226783968719452
11.01,1.5884652981427174
11.015,1.5591397849462365
11.02,1.5835777126099706
11.025,1.6177908113391983
11.03,1.5884652981427174
11.035,1.5591397849462365
11.040000000000001,1.598240469208211
11.045,1.6422287390029326
11.05,1.6031280547409579
11.055,1.5542521994134897
11.06,1.5933528836754642
11.065,1.632453567937439
11.07,1.598240469208211
11.075000000000001,1.5591397849462365
11.08,1.5933528836754642
11.085,1.6275659824046922
11.09,1.598240469208211
11.095,1.5640273704789833
11.1,1.6031280547409579
11.105,1.6373411534701858
11.11,1.598240469208211
11.115,1.5689149560117301
11.120000000000001,1.6275659824046922
11.125,1.6666666666666667
11.13,1.6373411534701858
11.135,1.6031280547409579
11.14,1.6275659824046922
11.145,1.66177908113392
11.15,1.6520039100684263
11.155,1.6373411534701858
11.16,1.66177908113392
11.165000000000001,1.6520039100684263
11.17,1.5786901270772238
11.175,1.544477028347996
11.18,1.5933528836754642
11.185,1.656891495601173
11.19,1.632453567937439
11.195,1.5786901270772238
11.200000000000001,1.5933528836754642
11.205,1.6275659824046922
11.21,1.6080156402737047
11.215,1.5689149560117301
11.22,1.598240469208211
11.225,1.6373411534701858
11.23,1.6080156402737047
11.235,1.5786901270772238
11.24,1.6129032258064515
11.245000000000001,1.6520039100684263
11.25,1.5835777126099706
11.255,1.4027370478983383
11.26,1.3685239491691104
11.265,1.4956011730205279
11.27,1.6031280547409579
11.275,1.8719452590420331
11.28,2.3607038123167157
11.285,3.1915933528836753
11.290000000000001,3.23069403714565
11.295,3.2062561094819158
11.3,2.565982404692082
11.305,1.8084066471163245
11.31,1.4467253176930597
11.315,1.4613880742913001
11.32,1.66177908113392
11.325000000000001,1.7839687194525904
11.33,1.7204301075268817
11.335,1.6275659824046922
11.34,1.6226783968719452
11.345,1.6471163245356795
11.35,1.6031280547409579
11.355,1.5591397849462365
11.36,1.5835777126099706
11.365,1.6129032258064515
11.370000000000001,1.573802541544477
11.375,1.5347018572825024
11.38,1.5689149560117301
11.385,1.598240469208211
11.39,1.5640273704789833
11.395,1.5298142717497556
11.4,1.5786901270772238
11.405,1.6177908113391983
11.41,1.5835777126099706
11.415000000000001,1.5395894428152492
11.42,1.5786901270772238
11.425,1.6177908113391983
11.43,1.5835777126099706
11.435,1.5493646138807429
11.44,1.5835777126099706
11.445,1.6226783968719452
11.450000000000001,1.5933528836754642
11.455,1.5689149560117301
11.46,1.6080156402737047
11.465,1.6471163245356795
11.47,1.6177908113391983
11.475,1.5786901270772238
11.48,1.6177908113391983
11.485,1.656891495601173
11.49,1.6275659824046922
11.495000000000001,1.5835777126099706
11.5,1.6177908113391983
11.505,1.66177908113392
11.51,1.632453567937439
11.515,1.5933528836754642
11.52,1.6275659824046922
11.525,1.6715542521994136
11.53,1.6422287390029326
11.535,1.6129032258064515
11.540000000000001,1.656891495601173
11.545,1.7057673509286413
11.55,1.686217008797654
11.555,1.6471163245356795
11.56,1.6715542521994136
11.565,1.7057673509286413
11.57,1.6715542521994136
11.575000000000001,1.6275659824046922
11.58,1.66177908113392
11.585,1.686217008797654
11.59,1.6471163245356795
11.595,1.5933528836754642
11.6,1.6177908113391983
11.605,1.656891495601173
11.61,1.6177908113391983
11.615,1.5786901270772238
11.620000000000001,1.6080156402737047
11.625,1.6471163245356795
11.63,1.6129032258064515
11.635,1.573802541544477
11.64,1.6080156402737047
11.645,1.6422287390029326
11.65,1.6031280547409579
11.655,1.5640273704789833
11.66,1.6080156402737047
11.665000000000001,1.6520039100684263
11.67,1.6129032258064515
11.675,1.573802541544477
11.68,1.598240469208211
11.685,1.632453567937439
11.69,1.6031280547409579
11.695,1.5640273704789833
11.700000000000001,1.598240469208211
11.705,1.6422287390029326
11.71,1.6080156402737047
11.715,1.5689149560117301
11.72,1.6031280547409579
11.725,1.6422287390029326
11.73,1.6080156402737047
11.735,1.5640273704789833
11.74,1.5933528836754642
11.745000000000001,1.6373411534701858
11.75,1.598240469208211
11.755,1.5640273704789833
11.76,1.6031280547409579
11.765,1.6471163245356795
11.77,1.6226783968719452
11.775,1.5835777126099706
11.78,1.6080156402737047
11.785,1.6471163245356795
11.790000000000001,1.6226783968719452
11.795,1.5786901270772238
11.8,1.6080156402737047
11.805,1.6520039100684263
11.81,1.6226783968719452
11.815,1.5835777126099706
11.82,1.6177908113391983
11.825000000000001,1.656891495601173
11.83,1.6226783968719452
11.835,1.5786901270772238
11.84,1.6129032258064515
11.845,1.6520039100684263
11.85,1.6373411534701858
11.855,1.6177908113391983
11.86,1.6666666666666667
11.865,1.7057673509286413
11.870000000000001,1.6520039100684263
11.875,1.6031280547409579
11.88,1.6422287390029326
11.885,1.6911045943304008
11.89,1.6715542521994136
11.895,1.6031280547409579
11.9,1.598240469208211
11.905,1.632453567937439
11.91,1.6177908113391983
11.915000000000001,1.5933528836754642
11.92,1.632453567937439
11.925,1.6666666666666667
11.93,1.6129032258064515
11.935,1.5689149560117301
11.94,1.6080156402737047
11.945,1.6520039100684263
11.950000000000001,1.6275659824046922
11.955,1.5884652981427174
11.96,1.6226783968719452
11.965,1.66177908113392
11.97,1.632453567937439
11.975,1.598240469208211
11.98,1.6226783968719452
11.985,1.544477028347996
11.99,1.3929618768328447
11.995000000000001,1.4076246334310851
12.0,1.5689149560117301
12.005,1.847507331378299
12.01,2.2385141739980448
12.015,2.8396871945259043
12.02,3.225806451612903
12.025,3.225806451612903
12.030000000000001,2.7761485826001957
12.035,1.911045943304008
12.040000000000001,1.5395894428152492
12.045,1.5933528836754642
12.05,1.7204301075268817
12.055,1.7644183773216031
12.06,1.7546432062561095
12.065,1.7253176930596286
12.07,1.6520039100684263
12.075000000000001,1.6031280547409579
12.08,1.632453567937439
12.085,1.6520039100684263
12.09,1.6080156402737047
12.095,1.5542521994134897
12.1,1.5835777126099706
12.105,1.6226783968719452
12.11,1.5884652981427174
12.115,1.5542521994134897
12.120000000000001,1.5835777126099706
12.125,1.6129032258064515
12.13,1.5835777126099706
12.135,1.5591397849462365
12.14,1.598240469208211
12.145,1.6422287390029326
12.15,1.6129032258064515
12.155000000000001,1.5689149560117301
12.16,1.6080156402737047
12.165000000000001,1.6520039100684263
12.17,1.6275659824046922
12.175,1.598240469208211
12.18,1.6373411534701858
12.185,1.686217008797654
12.19,1.6520039100684263
12.195,1.6177908113391983
12.200000000000001,1.6520039100684263
12.205,1.686217008797654
12.21,1.656891495601173
12.215,1.6177908113391983
12.22,1.656891495601173
12.225,1.7008797653958945
12.23,1.6813294232649072
12.235,1.6373411534701858
12.24,1.6764418377321604
12.245000000000001,1.715542521994135
12.25,1.686217008797654
12.255,1.6520039100684263
12.26,1.6911045943304008
12.265,1.7350928641251222
12.27,1.7008797653958945
12.275,1.6666666666666667
12.280000000000001,1.7057673509286413
12.285,1.7497556207233627
12.290000000000001,1.715542521994135
12.295,1.6715542521994136
12.3,1.6959921798631477
12.305,1.7253176930596286
12.31,1.686217008797654
12.315,1.632453567937439
12.32,1.66177908113392
12.325000000000001,1.6764418377321604
12.33,1.632453567937439
12.335,1.5884652981427174
12.34,1.6177908113391983
12.345,1.656891495601173
12.35,1.6226783968719452
12.355,1.5884652981427174
12.36,1.6129032258064515
12.365,1.6471163245356795
12.370000000000001,1.6226783968719452
12.375,1.598240469208211
12.38,1.6275659824046922
12.385,1.66177908113392
12.39,1.6275659824046922
12.395,1.5884652981427174
12.4,1.6177908113391983
12.405000000000001,1.66177908113392
12.41,1.6373411534701858
12.415000000000001,1.5884652981427174
12.42,1.6080156402737047
12.425,1.6373411534701858
12.43,1.6080156402737047
12.435,1.573802541544477
12.44,1.6080156402737047
12.445,1.6471163245356795
12.450000000000001,1.6177908113391983
12.455,1.573802541544477
12.46,1.598240469208211
12.465,1.632453567937439
12.47,1.6080156402737047
12.475,1.5786901270772238
12.48,1.6031280547409579
12.485,1.6422287390029326
12.49,1.6129032258064515
12.495000000000001,1.5689149560117301
12.5,1.598240469208211
12.505,1.632453567937439
12.51,1.6031280547409579
12.515,1.5689149560117301
12.52,1.6031280547409579
12.525,1.6471163245356795
12.530000000000001,1.6080156402737047
12.535,1.573802541544477
12.540000000000001,1.6080156402737047
12.545,1.6520039100684263
12.55,1.6226783968719452
12.555,1.5835777126099706
12.56,1.6129032258064515
12.565,1.6471163245356795
12.57,1.6129032258064515
12.575000000000001,1.573802541544477
12.58,1.6080156402737047
12.585,1.6666666666666667
12.59,1.6520039100684263
12.595,1.6226783968719452
12.6,1.656891495601173
12.605,1.686217008797654
12.61,1.6422287390029326
12.615,1.6177908113391983
12.620000000000001,1.66177908113392
12.625,1.710654936461388
12.63,1.656891495601173
12.635,1.5689149560117301
12.64,1.5835777126099706
12.645,1.6373411534701858
12.65,1.6275659824046922
12.655000000000001,1.598240469208211
12.66,1.6275659824046922
12.665000000000001,1.6471163245356795
12.67,1.6031280547409579
12.675,1.5689149560117301
12.68,1.598240469208211
12.685,1.632453567937439
12.69,1.6031280547409579
12.695,1.5591397849462365
12.700000000000001,1.5933528836754642
12.705,1.6373411534701858
12.71,1.6080156402737047
12.715,1.5640273704789833
12.72,1.5347018572825024
12.725,1.4320625610948192
12.73,1.3782991202346042
12.735,1.4320625610948192
12.74,1.6373411534701858
12.745000000000001,2.0332355816226784
12.75,2.5268817204301075
12.755,3.2160312805474094
12.76,3.2160312805474094
12.765,3.010752688172043
12.77,2.145650048875855
12.775,1.5689149560117301
12.780000000000001,1.5298142717497556
12.785,1.7057673509286413
12.790000000000001,1.7839687194525904
12.795,1.715542521994135
12.8,1.6813294232649072
12.805,1.6666666666666667
12.81,1.6129032258064515
12.815,1.5689149560117301
12.82,1.598240469208211
12.825000000000001,1.6275659824046922
12.83,1.5786901270772238
12.835,1.5395894428152492
12.84,1.5689149560117301
12.845,1.6080156402737047
12.85,1.5786901270772238
12.855,1.5347018572825024
12.86,1.5591397849462365
12.865,1.6031280547409579
12.870000000000001,1.5786901270772238
12.875,1.544477028347996
12.88,1.5786901270772238
12.885,1.6177908113391983
12.89,1.5933528836754642
12.895,1.5542521994134897
12.9,1.5884652981427174
12.905000000000001,1.6275659824046922
12.91,1.6031280547409579
12.915000000000001,1.5640273704789833
12.92,1.5933528836754642
12.925,1.6422287390029326
12.93,1.6129032258064515
12.935,1.5786901270772238
12.94,1.6129032258064515
12.945,1.656891495601173
12.950000000000001,1.6275659824046922
12.955,1.5884652981427174
12.96,1.6226783968719452
12.965,1.6666666666666667
12.97,1.632453567937439
12.975,1.598240469208211
12.98,1.6275659824046922
12.985,1.6764418377321604
12.99,1.656891495601173
12.995000000000001,1.6177908113391983
13.0,1.6471163245356795
13.005,1.6959921798631477
13.01,1.6764418377321604
13.015,1.6422287390029326
13.02,1.6715542521994136
13.025,1.7008797653958945
13.030000000000001,1.66177908113392
13.035,1.632453567937439
13.040000000000001,1.6666666666666667
13.045,1.7008797653958945
13.05,1.6520039100684263
13.055,1.6031280547409579
13.06,1.6226783968719452
13.065,1.66177908113392
13.07,1.6226783968719452
13.075000000000001,1.573802541544477
13.08,1.598240469208211
13.085,1.632453567937439
13.09,1.598240469208211
13.095,1.5591397849462365
13.1,1.5933528836754642
13.105,1.6275659824046922
13.11,1.6031280547409579
13.115,1.5689149560117301
13.120000000000001,1.6031280547409579
13.125,1.6373411534701858
13.13,1.6080156402737047
13.135,1.5640273704789833
13.14,1.5933528836754642
13.145,1.632453567937439
13.15,1.6080156402737047
13.155000000000001,1.5689149560117301
13.16,1.598240469208211
13.165000000000001,1.6373411534701858
13.17,1.6031280547409579
13.175,1.5493646138807429
13.18,1.5786901270772238
13.185,1.6177908113391983
13.19,1.5884652981427174
13.195,1.5591397849462365
13.200000000000001,1.5884652981427174
13.205,1.6226783968719452
13.21,1.5884652981427174
13.215,1.5493646138807429
13.22,1.5835777126099706
13.225,1.632453567937439
13.23,1.6031280547409579
13.235,1.5640273704789833
13.24,1.5933528836754642
13.245000000000001,1.6373411534701858
13.25,1.598240469208211
13.255,1.5542521994134897
13.26,1.5933528836754642
13.265,1.6373411534701858
13.27,1.6080156402737047
13.275,1.5640273704789833
13.280000000000001,1.6031280547409579
13.285,1.6373411534701858
13.290000000000001,1.6080156402737047
13.295,1.5640273704789833
13.3,1.598240469208211
13.305,1.6373411534701858
13.31,1.6031280547409579
13.315,1.573802541544477
13.32,1.6080156402737047
13.325000000000001,1.6373411534701858
13.33,1.6031280547409579
13.335,1.573802541544477
13.34,1.6275659824046922
13.345,1.6764418377321604
13.35,1.6471163245356795
13.355,1.6129032258064515
13.36,1.6275659824046922
13.365,1.66177908113392
13.370000000000001,1.6520039100684263
13.375,1.6275659824046922
13.38,1.656891495601173
13.385,1.66177908113392
13.39,1.598240469208211
13.395,1.5591397849462365
13.4,1.5933528836754642
13.405000000000001,1.656891495601173
13.41,1.6373411534701858
13.415000000000001,1.5884652981427174
13.42,1.6080156402737047
13.425,1.6422287390029326
13.43,1.6080156402737047
13.435,1.5689149560117301
13.44,1.6031280547409579
13.445,1.6471163245356795
13.450000000000001,1.6226783968719452
13.455,1.5835777126099706
13.46,1.6177908113391983
13.465,1.6666666666666667
13.47,1.6275659824046922
13.475,1.490713587487781
13.48,1.383186705767351
13.485,1.4467253176930597
13.49,1.5347018572825024
13.495000000000001,1.6911045943304008
13.5,2.09188660801564
13.505,2.70772238514174
13.51,3.220918866080156
13.515,3.2160312805474094
13.52,2.90811339198436
13.525,2.121212121212121
13.530000000000001,1.6422287390029326
13.535,1.5689149560117301
13.540000000000001,1.7497556207233627
13.545,1.8621700879765395
13.55,1.7986314760508308
13.555,1.6911045943304008
13.56,1.6813294232649072
13.565,1.7008797653958945
13.57,1.6520039100684263
13.575000000000001,1.598240469208211
13.58,1.6226783968719452
13.585,1.6471163245356795
13.59,1.6031280547409579
13.595,1.5591397849462365
13.6,1.5884652981427174
13.605,1.6275659824046922
13.61,1.598240469208211
13.615,1.5640273704789833
13.620000000000001,1.5933528836754642
13.625,1.632453567937439
13.63,1.6129032258064515
13.635,1.5689149560117301
13.64,1.6031280547409579
13.645,1.6422287390029326
13.65,1.6129032258064515
13.655000000000001,1.5835777126099706
13.66,1.6177908113391983
13.665000000000001,1.656891495601173
13.67,1.632453567937439
13.675,1.598240469208211
13.68,1.632453567937439
13.685,1.6715542521994136
13.69,1.6422287390029326
13.695,1.6080156402737047
13.700000000000001,1.6422287390029326
13.705,1.6813294232649072
13.71,1.656891495601173
13.715,1.6129032258064515
13.72,1.6471163245356795
13.725,1.6959921798631477
13.73,1.6666666666666667
13.735,1.632453567937439
13.74,1.656891495601173
13.745000000000001,1.6813294232649072
13.75,1.6520039100684263
13.755,1.6177908113391983
13.76,1.656891495601173
13.765,1.7008797653958945
13.77,1.686217008797654
13.775,1.6422287390029326
13.780000000000001,1.6764418377321604
13.785,1.715542521994135
13.790000000000001,1.6813294232649072
13.795,1.6373411534701858
13.8,1.66177908113392
13.805,1.6911045943304008
13.81,1.6520039100684263
13.815,1.6031280547409579
13.82,1.6275659824046922
13.825000000000001,1.656891495601173
13.83,1.6177908113391983
13.835,1.573802541544477
13.84,1.6080156402737047
13.845,1.6520039100684263
13.85,1.6177908113391983
13.855,1.5786901270772238
13.86,1.6129032258064515
13.865,1.6520039100684263
13.870000000000001,1.6226783968719452
13.875,1.573802541544477
13.88,1.598240469208211
13.885,1.632453567937439
13.89,1.6080156402737047
13.895,1.573802541544477
13.9,1.6129032258064515
13.905000000000001,1.656891495601173
13.91,1.6226783968719452
13.915000000000001,1.5786901270772238
13.92,1.6080156402737047
13.925,1.6471163245356795
13.93,1.6177908113391983
13.935,1.5835777126099706
13.94,1.6080156402737047
13.945,1.6422287390029326
13.950000000000001,1.6129032258064515
13.955,1.573802541544477
13.96,1.6031280547409579
13.965,1.6422287390029326
13.97,1.6080156402737047
13.975,1.5640273704789833
13.98,1.6031280547409579
13.985,1.6471163245356795
13.99,1.6129032258064515
13.995000000000001,1.573802541544477
14.0,1.6080156402737047
14.005,1.6471163245356795
14.01,1.6080156402737047
14.015,1.573802541544477
14.02,1.6129032258064515
14.025,1.6520039100684263
14.030000000000001,1.6177908113391983
14.035,1.573802541544477
14.040000000000001,1.6031280547409579
14.045,1.6471163245356795
14.05,1.6177908113391983
14.055,1.573802541544477
14.06,1.6031280547409579
14.065,1.6520039100684263
14.07,1.6275659824046922
14.075000000000001,1.5835777126099706
14.08,1.6080156402737047
14.085,1.6422287390029326
14.09,1.6080156402737047
14.095,1.5835777126099706
14.1,1.6373411534701858
14.105,1.6764418377321604
14.11,1.6520039100684263
14.115,1.6031280547409579
14.120000000000001,1.6177908113391983
14.125,1.6666666666666667
14.13,1.656891495601173
14.135,1.6373411534701858
14.14,1.6520039100684263
14.145,1.6422287390029326
14.15,1.5835777126099706
14.155000000000001,1.5591397849462365
14.16,1.598240469208211
14.165000000000001,1.656891495601173
14.17,1.632453567937439
14.175,1.5786901270772238
14.18,1.5884652981427174
14.185,1.632453567937439
14.19,1.6031280547409579
14.195,1.5640273704789833
14.200000000000001,1.598240469208211
14.205,1.6373411534701858
14.21,1.6129032258064515
14.215,1.5689149560117301
14.22,1.5933528836754642
14.225,1.6373411534701858
14.23,1.5884652981427174
14.235,1.4222873900293256
14.24,1.3440860215053763
14.245000000000001,1.4467253176930597
14.25,1.5395894428152492
14.255,1.739980449657869
14.26,2.1896383186705766
14.265,2.9178885630498534
14.27,3.2160312805474094
14.275,3.2062561094819158
14.280000000000001,2.7761485826001957
14.285,2.018572825024438
14.290000000000001,1.573802541544477
14.295,1.5102639296187683
14.3,1.6813294232649072
14.305,1.8084066471163245
14.31,1.7448680351906158
14.315,1.6422287390029326
14.32,1.632453567937439
14.325000000000001,1.6422287390029326
14.33,1.6080156402737047
14.335,1.5493646138807429
14.34,1.5640273704789833
14.345,1.5933528836754642
14.35,1.5591397849462365
14.355,1.5102639296187683
14.36,1.544477028347996
14.365,1.5933528836754642
14.370000000000001,1.5542521994134897
14.375,1.5151515151515151
14.38,1.5542521994134897
14.385,1.598240469208211
14.39,1.573802541544477
14.395,1.5395894428152492
14.4,1.573802541544477
14.405000000000001,1.6080156402737047
14.41,1.5786901270772238
14.415000000000001,1.5395894428152492
14.42,1.5786901270772238
14.425,1.6275659824046922
14.43,1.5933528836754642
14.435,1.5493646138807429
14.44,1.5835777126099706
14.445,1.6275659824046922
14.450000000000001,1.6080156402737047
14.455,1.5689149560117301
14.46,1.6031280547409579
14.465,1.632453567937439
14.47,1.6080156402737047
14.475,1.5689149560117301
14.48,1.6031280547409579
14.485,1.6422287390029326
14.49,1.6031280547409579
14.495000000000001,1.5640273704789833
14.5,1.6080156402737047
14.505,1.66177908113392
14.51,1.6422287390029326
14.515,1.6129032258064515
14.52,1.6422287390029326
14.525,1.686217008797654
14.530000000000001,1.6666666666666667
14.535,1.6275659824046922
14.540000000000001,1.6520039100684263
14.545,1.6911045943304008
14.55,1.66177908113392
14.555,1.6226783968719452
14.56,1.6471163245356795
14.565,1.6813294232649072
14.57,1.6471163245356795
14.575000000000001,1.5835777126099706
14.58,1.598240469208211
14.585,1.6373411534701858
14.59,1.6129032258064515
14.595,1.573802541544477
14.6,1.6031280547409579
14.605,1.6422287390029326
14.61,1.6080156402737047
14.615,1.5689149560117301
14.620000000000001,1.598240469208211
14.625,1.6422287390029326
14.63,1.6129032258064515
14.635,1.5640273704789833
14.64,1.598240469208211
14.645,1.6373411534701858
14.65,1.6129032258064515
14.655000000000001,1.5786901270772238
14.66,1.6080156402737047
14.665000000000001,1.6471163245356795
14.67,1.6129032258064515
14.675,1.573802541544477
14.68,1.598240469208211
14.685,1.6373411534701858
14.69,1.6080156402737047
14.695,1.5689149560117301
14.700000000000001,1.598240469208211
14.705,1.6373411534701858
14.71,1.6129032258064515
14.715,1.5786901270772238
14.72,1.598240469208211
14.725,1.632453567937439
14.73,1.598240469208211
14.735,1.5591397849462365
14.74,1.598240469208211
14.745000000000001,1.6471163245356795
14.75,1.6177908113391983
14.755,1.573802541544477
14.76,1.6031280547409579
14.765,1.6422287390029326
14.77,1.6080156402737047
14.775,1.5689149560117301
14.780000000000001,1.6080156402737047
14.785,1.6471163245356795
14.790000000000001,1.6177908113391983
14.795,1.573802541544477
14.8,1.6031280547409579
14.805,1.6471163245356795
14.81,1.6275659824046922
14.815,1.5884652981427174
14.82,1.6177908113391983
14.825000000000001,1.6520039100684263
14.83,1.6129032258064515
14.835,1.5689149560117301
14.84,1.6129032258064515
14.845,1.656891495601173
14.85,1.6226783968719452
14.855,1.5933528836754642
14.86,1.6373411534701858
14.865,1.686217008797654
14.870000000000001,1.656891495601173
14.875,1.6275659824046922
14.88,1.6520039100684263
14.885,1.6764418377321604
14.89,1.656891495601173
14.895,1.6422287390029326
14.9,1.6911045943304008
14.905000000000001,1.710654936461388
14.91,1.6471163245356795
14.915000000000001,1.5933528836754642
14.92,1.6275659824046922
14.925,1.6666666666666667
14.93,1.6471163245356795
14.935,1.6080156402737047
14.94,1.6226783968719452
14.945,1.656891495601173
14.950000000000001,1.6226783968719452
14.955,1.5835777126099706
14.96,1.6177908113391983
14.965,1.656891495601173
14.97,1.632453567937439
14.975,1.598240469208211
14.98,1.6275659824046922
14.985,1.66177908113392
14.99,1.6373411534701858
14.995000000000001,1.5493646138807429
15.0,1.4418377321603129
15.005,1.4271749755620724
15.01,1.4956011730205279
15.015,1.6226783968719452
15.02,1.9696969696969697
15.025,2.4682306940371457
15.030000000000001,3.2062561094819158
15.035,3.2160312805474094
15.040000000000001,3.1915933528836753
15.045,2.5855327468230693
15.05,1.8523949169110459
15.055,1.544477028347996
15.06,1.6422287390029326
15.065,1.8279569892473118
15.07,1.8377321603128054
15.075000000000001,1.7448680351906158
15.08,1.7057673509286413
15.085,1.7057673509286413
15.09,1.6520039100684263
15.095,1.5933528836754642
15.1,1.6129032258064515
15.105,1.6471163245356795
15.11,1.6129032258064515
15.115,1.5689149560117301
15.120000000000001,1.5884652981427174
15.125,1.6275659824046922
15.13,1.598240469208211
15.135,1.5542521994134897
15.14,1.5835777126099706
15.145,1.6275659824046922
15.15,1.598240469208211
15.155000000000001,1.5640273704789833
15.16,1.5933528836754642
15.165000000000001,1.6275659824046922
15.17,1.6080156402737047
15.175,1.5689149560117301
15.18,1.598240469208211
15.185,1.6373411534701858
15.19,1.6129032258064515
15.195,1.5835777126099706
15.200000000000001,1.6177908113391983
15.205,1.656891495601173
15.21,1.632453567937439
15.215,1.5884652981427174
15.22,1.6177908113391983
15.225,1.656891495601173
15.23,1.6275659824046922
15.235,1.5933528836754642
15.24,1.6226783968719452
15.245000000000001,1.6715542521994136
15.25,1.6422287390029326
15.255,1.598240469208211
15.26,1.6373411534701858
15.265,1.686217008797654
15.27,1.66177908113392
15.275,1.6129032258064515
15.280000000000001,1.6471163245356795
15.285,1.6911045943304008
15.290000000000001,1.6715542521994136
15.295,1.632453567937439
15.3,1.656891495601173
15.305,1.7057673509286413
15.31,1.6911045943304008
15.315,1.6422287390029326
15.32,1.656891495601173
15.325000000000001,1.686217008797654
15.33,1.6520039100684263
15.335,1.6080156402737047
15.34,1.6275659824046922
15.345,1.6520039100684263
15.35,1.6177908113391983
15.355,1.5786901270772238
15.36,1.6031280547409579
15.365,1.632453567937439
15.370000000000001,1.5933528836754642
15.375,1.5591397849462365
15.38,1.5835777126099706
15.385,1.6275659824046922
15.39,1.6031280547409579
15.395,1.5689149560117301
15.4,1.5933528836754642
15.405000000000001,1.632453567937439
15.41,1.6031280547409579
15.415000000000001,1.5689149560117301
15.42,1.6031280547409579
15.425,1.6471163245356795
15.43,1.6226783968719452
15.435,1.573802541544477
15.44,1.5933528836754642
15.445,1.6422287390029326
15.450000000000001,1.6129032258064515
15.455,1.5689149560117301
15.46,1.5884652981427174
15.465,1.632453567937439
15.47,1.5933528836754642
15.475,1.5591397849462365
15.48,1.5884652981427174
15.485000000000001,1.632453567937439
15.49,1.5933528836754642
15.495000000000001,1.544477028347996
15.5,1.5786901270772238
15.505,1.6177908113391983
15.51,1.5884652981427174
15.515,1.5542521994134897
15.52,1.5884652981427174
15.525,1.632453567937439
15.530000000000001,1.598240469208211
15.535,1.5591397849462365
15.540000000000001,1.5933528836754642
15.545,1.632453567937439
15.55,1.6031280547409579
15.555,1.5640273704789833
15.56,1.598240469208211
15.565,1.6373411534701858
15.57,1.6080156402737047
15.575000000000001,1.5689149560117301
15.58,1.598240469208211
15.585,1.6422287390029326
15.59,1.6129032258064515
15.595,1.573802541544477
15.6,1.598240469208211
15.605,1.632453567937439
15.610000000000001,1.6080156402737047
15.615,1.5689149560117301
15.620000000000001,1.6031280547409579
15.625,1.6422287390029326
15.63,1.6129032258064515
15.635,1.5689149560117301
15.64,1.6031280547409579
15.645,1.656891495601173
15.65,1.632453567937439
15.655000000000001,1.5884652981427174
15.66,1.6177908113391983
15.665000000000001,1.6520039100684263
15.67,1.632453567937439
15.675,1.6080156402737047
15.68,1.656891495601173
15.685,1.7008797653958945
15.69,1.6764418377321604
15.695,1.6275659824046922
15.700000000000001,1.632453567937439
15.705,1.686217008797654
15.71,1.6813294232649072
15.715,1.66177908113392
15.72,1.6764418377321604
15.725,1.6813294232649072
15.73,1.6275659824046922
15.735000000000001,1.598240469208211
15.74,1.632453567937439
15.745000000000001,1.686217008797654
15.75,1.6666666666666667
15.755,1.6177908113391983
15.76,1.6373411534701858
15.765,1.6715542521994136
15.77,1.6471163245356795
15.775,1.6031280547409579
15.780000000000001,1.6373411534701858
15.785,1.6813294232649072
15.790000000000001,1.656891495601173
15.795,1.6177908113391983
15.8,1.6471163245356795
15.805,1.686217008797654
15.81,1.66177908113392
15.815,1.544477028347996
15.82,1.4320625610948192
15.825000000000001,1.4809384164222874
15.83,1.5640273704789833
15.835,1.715542521994135
15.84,2.1114369501466275
15.845,2.673509286412512
15.85,3.2111436950146626
15.855,3.2062561094819158
15.860000000000001,3.0205278592375366
15.865,2.2629521016617793
15.870000000000001,1.710654936461388
15.875,1.573802541544477
15.88,1.7302052785923754
15.885,1.8768328445747802
15.89,1.8328445747800586
15.895,1.7302052785923754
15.9,1.710654936461388
15.905000000000001,1.7253176930596286
15.91,1.6666666666666667
15.915000000000001,1.6129032258064515
15.92,1.6226783968719452
15.925,1.6520039100684263
15.93,1.6177908113391983
15.935,1.573802541544477
15.94,1.598240469208211
15.945,1.6373411534701858
15.950000000000001,1.6080156402737047
15.955,1.5640273704789833
15.96,1.5933528836754642
15.965,1.6373411534701858
15.97,1.6129032258064515
15.975,1.5786901270772238
15.98,1.598240469208211
15.985000000000001,1.6373411534701858
15.99,1.6129032258064515
15.995000000000001,1.5786901270772238
16.0,1.6177908113391983
16.005,1.66177908113392
16.01,1.6373411534701858
16.015,1.5933528836754642
16.02,1.632453567937439
16.025,1.6764418377321604
16.03,1.656891495601173
16.035,1.6177908113391983
16.04,1.6471163245356795
16.045,1.6911045943304008
16.05,1.66177908113392
16.055,1.6275659824046922
16.06,1.656891495601173
16.065,1.6959921798631477
16.07,1.6666666666666667
16.075,1.632453567937439
16.080000000000002,1.66177908113392
16.085,1.710654936461388
16.09,1.6911045943304008
16.095,1.656891495601173
16.1,1.686217008797654
16.105,1.7302052785923754
16.11,1.7057673509286413
16.115000000000002,1.66177908113392
16.12,1.6813294232649072
16.125,1.7204301075268817
16.13,1.6959921798631477
16.135,1.6520039100684263
16.14,1.6764418377321604
16.145,1.6959921798631477
16.15,1.6520039100684263
16.155,1.598240469208211
16.16,1.6226783968719452
16.165,1.656891495601173
16.17,1.6177908113391983
16.175,1.573802541544477
16.18,1.5933528836754642
16.185,1.6373411534701858
16.19,1.6080156402737047
16.195,1.5640273704789833
16.2,1.5884652981427174
16.205000000000002,1.6275659824046922
16.21,1.6080156402737047
16.215,1.5689149560117301
16.22,1.6031280547409579
16.225,1.6422287390029326
16.23,1.6031280547409579
16.235,1.5591397849462365
16.240000000000002,1.5884652981427174
16.245,1.632453567937439
16.25,1.6031280547409579
16.255,1.5640273704789833
16.26,1.598240469208211
16.265,1.6373411534701858
16.27,1.6031280547409579
16.275,1.5591397849462365
16.28,1.5835777126099706
16.285,1.6226783968719452
16.29,1.6031280547409579
16.295,1.5689149560117301
16.3,1.5933528836754642
16.305,1.632453567937439
16.31,1.6080156402737047
16.315,1.5689149560117301
16.32,1.5933528836754642
16.325,1.632453567937439
16.330000000000002,1.6031280547409579
16.335,1.5591397849462365
16.34,1.5835777126099706
16.345,1.6226783968719452
16.35,1.5933528836754642
16.355,1.5542521994134897
16.36,1.5884652981427174
16.365000000000002,1.632453567937439
16.37,1.6031280547409579
16.375,1.5542521994134897
16.38,1.5884652981427174
16.385,1.632453567937439
16.39,1.6129032258064515
16.395,1.573802541544477
16.4,1.598240469208211
16.405,1.632453567937439
16.41,1.598240469208211
16.415,1.5542521994134897
16.42,1.5933528836754642
16.425,1.6373411534701858
16.43,1.6031280547409579
16.435,1.5591397849462365
16.44,1.5835777126099706
16.445,1.6226783968719452
16.45,1.598240469208211
16.455000000000002,1.5591397849462365
16.46,1.5933528836754642
16.465,1.632453567937439
16.47,1.598240469208211
16.475,1.5542521994134897
16.48,1.5835777126099706
16.485,1.632453567937439
16.490000000000002,1.6031280547409579
16.495,1.5640273704789833
16.5,1.5933528836754642
16.505,1.6373411534701858
16.51,1.6177908113391983
16.515,1.573802541544477
16.52,1.6275659824046922
16.525,1.6911045943304008
16.53,1.6666666666666667
16.535,1.6177908113391983
16.54,1.6275659824046922
16.545,1.6520039100684263
16.55,1.6471163245356795
16.555,1.6275659824046922
16.56,1.66177908113392
16.565,1.6911045943304008
16.57,1.6275659824046922
16.575,1.5689149560117301
16.580000000000002,1.598240469208211
16.585,1.6471163245356795
16.59,1.632453567937439
16.595,1.598240469208211
16.6,1.6177908113391983
16.605,1.6520039100684263
16.61,1.6177908113391983
16.615000000000002,1.5786901270772238
16.62,1.6080156402737047
16.625,1.656891495601173
16.63,1.6226783968719452
16.635,1.5786901270772238
16.64,1.6080156402737047
16.645,1.6471163245356795
16.65,1.6275659824046922
16.655,1.5786901270772238
16.66,1.5151515151515151
16.665,1.4271749755620724
16.67,1.4271749755620724
16.675,1.5053763440860215
16.68,1.7253176930596286
16.685,2.1358748778103616
16.69,2.649071358748778
16.695,3.2111436950146626
16.7,3.2062561094819158
16.705000000000002,2.952101661779081
16.71,2.1407624633431084
16.715,1.6275659824046922
16.72,1.5933528836754642
16.725,1.7595307917888563
16.73,1.8328445747800586
16.735,1.76930596285435
16.740000000000002,1.7302052785923754
16.745,1.7204301075268817
16.75,1.66177908113392
16.755,1.598240469208211
16.76,1.6129032258064515
16.765,1.6422287390029326
16.77,1.6177908113391983
16.775,1.5689149560117301
16.78,1.5884652981427174
16.785,1.6226783968719452
16.79,1.5933528836754642
16.795,1.5542521994134897
16.8,1.5835777126099706
16.805,1.6129032258064515
16.81,1.5786901270772238
16.815,1.5493646138807429
16.82,1.5933528836754642
16.825,1.6422287390029326
16.830000000000002,1.6080156402737047
16.835,1.573802541544477
16.84,1.6031280547409579
16.845,1.6471163245356795
16.85,1.6177908113391983
16.855,1.573802541544477
16.86,1.6129032258064515
16.865000000000002,1.656891495601173
16.87,1.632453567937439
16.875,1.5933528836754642
16.88,1.6275659824046922
16.885,1.6666666666666667
16.89,1.6422287390029326
16.895,1.6031280547409579
16.9,1.632453567937439
16.905,1.6715542521994136
16.91,1.6422287390029326
16.915,1.6031280547409579
16.92,1.6373411534701858
16.925,1.6813294232649072
16.93,1.6666666666666667
16.935,1.632453567937439
16.94,1.66177908113392
16.945,1.6959921798631477
16.95,1.6764418377321604
16.955000000000002,1.6520039100684263
16.96,1.686217008797654
16.965,1.7204301075268817
16.97,1.6813294232649072
16.975,1.6373411534701858
16.98,1.6715542521994136
16.985,1.710654936461388
16.990000000000002,1.6715542521994136
16.995,1.6129032258064515
17.0,1.6275659824046922
17.005,1.656891495601173
17.01,1.6226783968719452
17.015,1.5786901270772238
17.02,1.6031280547409579
17.025,1.632453567937439
17.03,1.598240469208211
17.035,1.5542521994134897
17.04,1.5933528836754642
17.045,1.632453567937439
17.05,1.598240469208211
17.055,1.5640273704789833
17.06,1.5835777126099706
17.065,1.6226783968719452
17.07,1.6031280547409579
17.075,1.5591397849462365
17.080000000000002,1.5933528836754642
17.085,1.6373411534701858
17.09,1.6080156402737047
17.095,1.5591397849462365
17.1,1.5884652981427174
17.105,1.6275659824046922
17.11,1.6031280547409579
17.115000000000002,1.5689149560117301
17.12,1.598240469208211
17.125,1.6275659824046922
17.13,1.5933528836754642
17.135,1.5542521994134897
17.14,1.5689149560117301
17.145,1.6080156402737047
17.150000000000002,1.5786901270772238
17.155,1.5395894428152492
17.16,1.5640273704789833
17.165,1.6080156402737047
17.17,1.5835777126099706
17.175,1.5542521994134897
17.18,1.5835777126099706
17.185,1.6226783968719452
17.19,1.5933528836754642
17.195,1.5542521994134897
17.2,1.5786901270772238
17.205000000000002,1.6177908113391983
17.21,1.5884652981427174
17.215,1.5493646138807429
17.22,1.5786901270772238
17.225,1.6177908113391983
17.23,1.5933528836754642
17.235,1.5493646138807429
17.240000000000002,1.5786901270772238
17.245,1.6275659824046922
17.25,1.6031280547409579
17.255,1.5542521994134897
17.26,1.5884652981427174
17.265,1.632453567937439
17.27,1.598240469208211
17.275000000000002,1.544477028347996
17.28,1.5786901270772238
17.285,1.6275659824046922
17.29,1.598240469208211
17.295,1.5493646138807429
17.3,1.5835777126099706
17.305,1.6275659824046922
17.31,1.598240469208211
17.315,1.5640273704789833
17.32,1.598240469208211
17.325,1.6275659824046922
17.330000000000002,1.5884652981427174
17.335,1.5493646138807429
17.34,1.598240469208211
17.345,1.66177908113392
17.35,1.6520039100684263
17.355,1.6177908113391983
17.36,1.6373411534701858
17.365000000000002,1.6764418377321604
17.37,1.6520039100684263
17.375,1.6275659824046922
17.38,1.6520039100684263
17.385,1.686217008797654
17.39,1.6226783968719452
17.395,1.5689149560117301
17.400000000000002,1.5933528836754642
17.405,1.6275659824046922
17.41,1.6177908113391983
17.415,1.5884652981427174
17.42,1.6031280547409579
17.425,1.6226783968719452
17.43,1.598240469208211
17.435,1.5689149560117301
17.44,1.6031280547409579
17.445,1.6422287390029326
17.45,1.6080156402737047
17.455000000000002,1.5689149560117301
17.46,1.6129032258064515
17.465,1.6520039100684263
17.47,1.6129032258064515
17.475,1.5493646138807429
17.48,1.4467253176930597
17.485,1.3978494623655915
17.490000000000002,1.4418377321603129
17.495,1.5298142717497556
17.5,1.8084066471163245
17.505,2.267839687194526
17.51,2.903225806451613
17.515,3.2111436950146626
17.52,3.2062561094819158
17.525000000000002,2.854349951124145
17.53,2.043010752688172
17.535,1.5542521994134897
17.54,1.5347018572825024
17.545,1.715542521994135
17.55,1.7888563049853372
17.555,1.739980449657869
17.56,1.6911045943304008
17.565,1.6666666666666667
17.57,1.6129032258064515
17.575,1.5786901270772238
17.580000000000002,1.6031280547409579
17.585,1.6226783968719452
17.59,1.5786901270772238
17.595,1.5298142717497556
17.6,1.5542521994134897
17.605,1.5884652981427174
17.61,1.5542521994134897
17.615000000000002,1.5151515151515151
17.62,1.5542521994134897
17.625,1.598240469208211
17.63,1.5640273704789833
17.635,1.5151515151515151
17.64,1.5542521994134897
17.645,1.6031280547409579
17.650000000000002,1.5835777126099706
17.655,1.5493646138807429
17.66,1.5786901270772238
17.665,1.6129032258064515
17.67,1.5835777126099706
17.675,1.5542521994134897
17.68,1.5933528836754642
17.685,1.6422287390029326
17.69,1.6177908113391983
17.695,1.5786901270772238
17.7,1.6031280547409579
17.705000000000002,1.6373411534701858
17.71,1.6129032258064515
17.715,1.5786901270772238
17.72,1.6031280547409579
17.725,1.6422287390029326
17.73,1.6177908113391983
17.735,1.5640273704789833
17.740000000000002,1.5884652981427174
17.745,1.6471163245356795
17.75,1.6422287390029326
17.755,1.6129032258064515
17.76,1.6373411534701858
17.765,1.6911045943304008
17.77,1.6764418377321604
17.775000000000002,1.6422287390029326
17.78,1.6715542521994136
17.785,1.7253176930596286
17.79,1.6959921798631477
17.795,1.6471163245356795
17.8,1.6666666666666667
17.805,1.6959921798631477
17.81,1.66177908113392
17.815,1.6080156402737047
17.82,1.6226783968719452
17.825,1.6471163245356795
17.830000000000002,1.598240469208211
17.835,1.5591397849462365
17.84,1.5884652981427174
17.845,1.632453567937439
17.85,1.6031280547409579
17.855,1.5640273704789833
17.86,1.5933528836754642
17.865000000000002,1.6226783968719452
17.87,1.5933528836754642
17.875,1.5395894428152492
17.88,1.5689149560117301
17.885,1.6129032258064515
17.89,1.5884652981427174
17.895,1.5542521994134897
17.900000000000002,1.5786901270772238
17.905,1.6177908113391983
17.91,1.5933528836754642
17.915,1.5493646138807429
17.92,1.5786901270772238
17.925,1.6226783968719452
17.93,1.5884652981427174
17.935,1.5395894428152492
17.94,1.5591397849462365
17.945,1.598240469208211
17.95,1.5884652981427174
17.955000000000002,1.5640273704789833
17.96,1.5933528836754642
17.965,1.6275659824046922
17.97,1.5884652981427174
17.975,1.5542521994134897
17.98,1.6031280547409579
17.985,1.6471163245356795
17.990000000000002,1.6080156402737047
17.995,1.5591397849462365
18.0,1.5835777126099706
18.005,1.6275659824046922
18.01,1.6129032258064515
18.015,1.573802541544477
18.02,1.598240469208211
18.025000000000002,1.632453567937439
18.03,1.598240469208211
18.035,1.5591397849462365
18.04,1.5933528836754642
18.045,1.6422287390029326
18.05,1.6275659824046922
18.055,1.5884652981427174
18.06,1.6177908113391983
18.065,1.656891495601173
18.07,1.6226783968719452
18.075,1.5835777126099706
18.080000000000002,1.6226783968719452
18.085,1.66177908113392
18.09,1.6373411534701858
18.095,1.5884652981427174
18.1,1.6129032258064515
18.105,1.66177908113392
18.11,1.656891495601173
18.115000000000002,1.632453567937439
18.12,1.66177908113392
18.125,1.6911045943304008
18.13,1.6520039100684263
18.135,1.6226783968719452
18.14,1.6666666666666667
18.145,1.715542521994135
18.150000000000002,1.6959921798631477
18.155,1.6275659824046922
18.16,1.6275659824046922
18.165,1.656891495601173
18.17,1.632453567937439
18.175,1.6080156402737047
18.18,1.6520039100684263
18.185,1.6764418377321604
18.19,1.6226783968719452
18.195,1.5786901270772238
18.2,1.6129032258064515
18.205000000000002,1.66177908113392
18.21,1.632453567937439
18.215,1.5884652981427174
18.22,1.6177908113391983
18.225,1.656891495601173
18.23,1.6373411534701858
18.235,1.6129032258064515
18.240000000000002,1.6275659824046922
18.245,1.5542521994134897
18.25,1.4076246334310851
18.255,1.412512218963832
18.26,1.5640273704789833
18.265,1.8426197458455522
18.27,2.2238514173998043
18.275000000000002,2.825024437927664
18.28,3.2160312805474094
18.285,3.2111436950146626
18.29,3.010752688172043
18.295,2.1652003910068425
18.3,1.632453567937439
18.305,1.573802541544477
18.31,1.6911045943304008
18.315,1.7741935483870968
18.32,1.8035190615835777
18.325,1.76930596285435
18.330000000000002,1.6911045943304008
18.335,1.6275659824046922
18.34,1.6422287390029326
18.345,1.6715542521994136
18.35,1.6471163245356795
18.355,1.5933528836754642
18.36,1.6080156402737047
18.365000000000002,1.6471163245356795
18.37,1.6226783968719452
18.375,1.573802541544477
18.38,1.5933528836754642
18.385,1.6373411534701858
18.39,1.6129032258064515
18.395,1.5786901270772238
18.400000000000002,1.6129032258064515
18.405,1.656891495601173
18.41,1.6226783968719452
18.415,1.5786901270772238
18.42,1.6031280547409579
18.425,1.6422287390029326
18.43,1.6177908113391983
18.435,1.5933528836754642
18.44,1.6177908113391983
18.445,1.66177908113392
18.45,1.6422287390029326
18.455000000000002,1.6080156402737047
18.46,1.6422287390029326
18.465,1.6764418377321604
18.47,1.6471163245356795
18.475,1.6129032258064515
18.48,1.6471163245356795
18.485,1.6959921798631477
18.490000000000002,1.66177908113392
18.495,1.6177908113391983
18.5,1.6471163245356795
18.505,1.6959921798631477
18.51,1.6764418377321604
18.515,1.632453567937439
18.52,1.6666666666666667
18.525000000000002,1.710654936461388
18.53,1.6813294232649072
18.535,1.6373411534701858
18.54,1.6715542521994136
18.545,1.7204301075268817
18.55,1.6959921798631477
18.555,1.656891495601173
18.56,1.686217008797654
18.565,1.7253176930596286
18.57,1.686217008797654
18.575,1.6422287390029326
18.580000000000002,1.6715542521994136
18.585,1.6959921798631477
18.59,1.6520039100684263
18.595,1.6031280547409579
18.6,1.6177908113391983
18.605,1.6520039100684263
18.61,1.6226783968719452
18.615000000000002,1.5884652981427174
18.62,1.6177908113391983
18.625,1.6520039100684263
18.63,1.6275659824046922
18.635,1.5884652981427174
18.64,1.6129032258064515
18.645,1.6471163245356795
18.650000000000002,1.6177908113391983
18.655,1.573802541544477
18.66,1.598240469208211
18.665,1.6422287390029326
18.67,1.6129032258064515
18.675,1.573802541544477
18.68,1.6031280547409579
18.685,1.6520039100684263
18.69,1.6226783968719452
18.695,1.573802541544477
18.7,1.6031280547409579
18.705000000000002,1.6422287390029326
18.71,1.6129032258064515
18.715,1.5640273704789833
18.72,1.598240469208211
18.725,1.6373411534701858
18.73,1.6031280547409579
18.735,1.5640273704789833
18.740000000000002,1.598240469208211
18.745,1.6373411534701858
18.75,1.6129032258064515
18.755,1.5689149560117301
18.76,1.598240469208211
18.765,1.6275659824046922
18.77,1.598240469208211
18.775000000000002,1.5640273704789833
18.78,1.5835777126099706
18.785,1.6177908113391983
18.79,1.5933528836754642
18.795,1.5640273704789833
18.8,1.598240469208211
18.805,1.6422287390029326
18.81,1.6031280547409579
18.815,1.5591397849462365
18.82,1.5933528836754642
18.825,1.6422287390029326
18.830000000000002,1.6177908113391983
18.835,1.5786901270772238
18.84,1.6129032258064515
18.845,1.656891495601173
18.85,1.6275659824046922
18.855,1.5786901270772238
18.86,1.598240469208211
18.865000000000002,1.6373411534701858
18.87,1.6226783968719452
18.875,1.6080156402737047
18.88,1.6422287390029326
18.885,1.6911045943304008
18.89,1.66177908113392
18.895,1.6080156402737047
18.900000000000002,1.6373411534701858
18.905,1.6959921798631477
18.91,1.686217008797654
18.915,1.6422287390029326
18.92,1.6226783968719452
18.925,1.632453567937439
18.93,1.6080156402737047
18.935,1.5884652981427174
18.94,1.632453567937439
18.945,1.6764418377321604
18.95,1.6422287390029326
18.955000000000002,1.5835777126099706
18.96,1.6177908113391983
18.965,1.656891495601173
18.97,1.6275659824046922
18.975,1.5933528836754642
18.98,1.6226783968719452
18.985,1.66177908113392
18.990000000000002,1.6275659824046922
18.995,1.5884652981427174
19.0,1.6226783968719452
19.005,1.6129032258064515
19.01,1.436950146627566
19.015,1.3636363636363635
19.02,1.490713587487781
19.025000000000002,1.6911045943304008
19.03,1.9941348973607038
19.035,2.4437927663734116
19.04,3.2111436950146626
19.045,3.2160312805474094
19.05,3.1818181818181817
19.055,2.4535679374389052
19.06,1.7888563049853372
19.065,1.598240469208211
19.07,1.66177908113392
19.075,1.76930596285435
19.080000000000002,1.8181818181818181
19.085,1.7888563049853372
19.09,1.6813294232649072
19.095,1.6080156402737047
19.1,1.6275659824046922
19.105,1.66177908113392
19.11,1.6226783968719452
19.115000000000002,1.5689149560117301
19.12,1.5835777126099706
19.125,1.6177908113391983
19.13,1.5835777126099706
19.135,1.544477028347996
19.14,1.573802541544477
19.145,1.6129032258064515
19.150000000000002,1.5884652981427174
19.155,1.5493646138807429
19.16,1.5835777126099706
19.165,1.6275659824046922
19.17,1.6031280547409579
19.175,1.5640273704789833
19.18,1.5835777126099706
19.185,1.6129032258064515
19.19,1.5933528836754642
19.195,1.5640273704789833
19.2,1.6129032258064515
19.205000000000002,1.656891495601173
19.21,1.6275659824046922
19.215,1.5884652981427174
19.22,1.6226783968719452
19.225,1.6715542521994136
19.23,1.6520039100684263
19.235,1.6177908113391983
19.240000000000002,1.6471163245356795
19.245,1.6813294232649072
19.25,1.6471163245356795
19.255,1.6129032258064515
19.26,1.6422287390029326
19.265,1.6959921798631477
19.27,1.6666666666666667
19.275000000000002,1.6177908113391983
19.28,1.6520039100684263
19.285,1.7008797653958945
19.29,1.6813294232649072
19.295,1.6373411534701858
19.3,1.6715542521994136
19.305,1.715542521994135
19.31,1.6813294232649072
19.315,1.6373411534701858
19.32,1.66177908113392
19.325,1.7008797653958945
19.330000000000002,1.6666666666666667
19.335,1.6226783968719452
19.34,1.6373411534701858
19.345,1.656891495601173
19.35,1.6177908113391983
19.355,1.5689149560117301
19.36,1.5933528836754642
19.365000000000002,1.632453567937439
19.37,1.598240469208211
19.375,1.5542521994134897
19.38,1.5884652981427174
19.385,1.6226783968719452
19.39,1.5884652981427174
19.395,1.5591397849462365
19.400000000000002,1.5933528836754642
19.405,1.6373411534701858
19.41,1.6177908113391983
19.415,1.573802541544477
19.42,1.6031280547409579
19.425,1.6471163245356795
19.43,1.6129032258064515
19.435,1.5689149560117301
19.44,1.5933528836754642
19.445,1.6373411534701858
19.45,1.6177908113391983
19.455000000000002,1.5689149560117301
19.46,1.6031280547409579
19.465,1.6471163245356795
19.47,1.6177908113391983
19.475,1.573802541544477
19.48,1.5933528836754642
19.485,1.6275659824046922
19.490000000000002,1.598240469208211
19.495,1.5640273704789833
19.5,1.6031280547409579
19.505,1.6422287390029326
19.51,1.6129032258064515
19.515,1.5689149560117301
19.52,1.598240469208211
19.525000000000002,1.6422287390029326
19.53,1.6080156402737047
19.535,1.5640273704789833
19.54,1.598240469208211
19.545,1.6422287390029326
19.55,1.6080156402737047
19.555,1.5689149560117301
19.56,1.6080156402737047
19.565,1.656891495601173
19.57,1.6275659824046922
19.575,1.5786901270772238
19.580000000000002,1.6129032258064515
19.585,1.656891495601173
19.59,1.6275659824046922
19.595,1.5933528836754642
19.6,1.6226783968719452
19.605,1.656891495601173
19.61,1.632453567937439
19.615000000000002,1.5933528836754642
19.62,1.6226783968719452
19.625,1.656891495601173
19.63,1.6373411534701858
19.635,1.5933528836754642
19.64,1.6226783968719452
19.645,1.6666666666666667
19.650000000000002,1.656891495601173
19.655,1.6373411534701858
19.66,1.66177908113392
19.665,1.7008797653958945
19.67,1.6520039100684263
19.675,1.6031280547409579
19.68,1.6471163245356795
19.685,1.7057673509286413
19.69,1.6911045943304008
19.695,1.6373411534701858
19.7,1.6275659824046922
19.705000000000002,1.6471163245356795
19.71,1.6275659824046922
19.715,1.6031280547409579
19.72,1.6520039100684263
19.725,1.6911045943304008
19.73,1.6422287390029326
19.735,1.5933528836754642
19.740000000000002,1.6226783968719452
19.745,1.6666666666666667
19.75,1.632453567937439
19.755,1.598240469208211
19.76,1.6275659824046922
19.765,1.6666666666666667
19.77,1.6471163245356795
19.775000000000002,1.6177908113391983
19.78,1.6471163245356795
19.785,1.6177908113391983
19.79,1.4418377321603129
19.795,1.3978494623655915
19.8,1.5395894428152492
19.805,1.7546432062561095
19.81,2.067448680351906
19.815,2.536656891495601
19.82,3.2160312805474094
19.825,3.2160312805474094
19.830000000000002,3.088954056695992
19.835,2.2629521016617793
19.84,1.710654936461388
19.845,1.6226783968719452
19.85,1.715542521994135
19.855,1.7839687194525904
19.86,1.8035190615835777
19.865000000000002,1.7790811339198436
19.87,1.7008797653958945
19.875,1.6422287390029326
19.88,1.6471163245356795
19.885,1.6715542521994136
19.89,1.6226783968719452
19.895,1.5689149560117301
19.900000000000002,1.598240469208211
19.905,1.6422287390029326
19.91,1.6129032258064515
19.915,1.5786901270772238
19.92,1.6080156402737047
19.925,1.6471163245356795
19.93,1.6080156402737047
19.935,1.5689149560117301
19.94,1.598240469208211
19.945,1.6422287390029326
19.95,1.6129032258064515
19.955000000000002,1.5786901270772238
19.96,1.6129032258064515
19.965,1.6471163245356795
19.97,1.6177908113391983
19.975,1.5835777126099706
19.98,1.6226783968719452
19.985,1.6715542521994136
19.990000000000002,1.6422287390029326
19.995,1.598240469208211
20.0,1.632453567937439
20.005,1.6813294232649072
20.01,1.656891495601173
20.015,1.6275659824046922
20.02,1.66177908113392
20.025000000000002,1.7057673509286413
20.03,1.6764418377321604
20.035,1.632453567937439
20.04,1.66177908113392
20.045,1.7008797653958945
20.05,1.6715542521994136
20.055,1.632453567937439
20.06,1.6666666666666667
20.065,1.7057673509286413
20.07,1.6911045943304008
20.075,1.6715542521994136
20.080000000000002,1.7057673509286413
20.085,1.7448680351906158
20.09,1.710654936461388
20.095,1.6666666666666667
20.1,1.686217008797654
20.105,1.7204301075268817
20.11,1.6911045943304008
20.115000000000002,1.6422287390029326
20.12,1.656891495601173
20.125,1.6764418377321604
20.13,1.632453567937439
20.135,1.5884652981427174
20.14,1.6129032258064515
20.145,1.6471163245356795
20.150000000000002,1.6080156402737047
20.155,1.5591397849462365
20.16,1.5933528836754642
20.165,1.6422287390029326
20.17,1.6129032258064515
20.175,1.573802541544477
20.18,1.6031280547409579
20.185,1.632453567937439
20.19,1.598240469208211
20.195,1.5640273704789833
20.2,1.598240469208211
20.205000000000002,1.6373411534701858
20.21,1.5933528836754642
20.215,1.5542521994134897
20.22,1.5884652981427174
20.225,1.632453567937439
20.23,1.6080156402737047
20.235,1.5689149560117301
20.240000000000002,1.5884652981427174
20.245,1.6177908113391983
20.25,1.5884652981427174
20.255,1.5493646138807429
20.26,1.5835777126099706
20.265,1.6177908113391983
20.27,1.5835777126099706
20.275000000000002,1.544477028347996
20.28,1.5786901270772238
20.285,1.6177908113391983
20.29,1.5835777126099706
20.295,1.5395894428152492
20.3,1.5689149560117301
20.305,1.6129032258064515
20.31,1.5835777126099706
20.315,1.544477028347996
20.32,1.5786901270772238
20.325,1.6129032258064515
20.330000000000002,1.5884652981427174
20.335,1.5542521994134897
20.34,1.5884652981427174
20.345,1.6275659824046922
20.35,1.598240469208211
20.355,1.5591397849462365
20.36,1.5884652981427174
20.365000000000002,1.6275659824046922
20.37,1.6031280547409579
20.375,1.5689149560117301
20.38,1.6031280547409579
20.385,1.632453567937439
20.39,1.5933528836754642
20.395,1.5591397849462365
20.400000000000002,1.598240469208211
20.405,1.6373411534701858
20.41,1.6129032258064515
20.415,1.5786901270772238
20.42,1.6275659824046922
20.425,1.6813294232649072
20.43,1.6471163245356795
20.435,1.6177908113391983
20.44,1.632453567937439
20.445,1.66177908113392
20.45,1.6373411534701858
20.455000000000002,1.6129032258064515
20.46,1.6666666666666667
20.465,1.6813294232649072
20.47,1.6080156402737047
20.475,1.5591397849462365
20.48,1.6031280547409579
20.485,1.656891495601173
20.490000000000002,1.6422287390029326
20.495,1.598240469208211
20.5,1.6177908113391983
20.505,1.6422287390029326
20.51,1.6177908113391983
20.515,1.5835777126099706
20.52,1.6080156402737047
20.525000000000002,1.6422287390029326
20.53,1.6129032258064515
20.535,1.5835777126099706
20.54,1.6275659824046922
20.545,1.6666666666666667
20.55,1.6422287390029326
20.555,1.5542521994134897
20.56,1.4418377321603129
20.565,1.4173998044965788
20.57,1.4711632453567938
20.575,1.5640273704789833
20.580000000000002,1.8914956011730206
20.585,2.375366568914956
20.59,3.1280547409579667
20.595,3.220918866080156
20.6,3.1818181818181817
20.605,2.517106549364614
20.61,1.793743890518084
20.615000000000002,1.5151515151515151
20.62,1.6080156402737047
20.625,1.7839687194525904
20.63,1.7839687194525904
20.635,1.6813294232649072
20.64,1.6520039100684263
20.645,1.656891495601173
20.650000000000002,1.6177908113391983
20.655,1.573802541544477
20.66,1.5933528836754642
20.665,1.6226783968719452
20.67,1.5884652981427174
20.675,1.544477028347996
20.68,1.573802541544477
20.685,1.6129032258064515
20.69,1.5884652981427174
20.695,1.544477028347996
20.7,1.573802541544477
20.705000000000002,1.6129032258064515
20.71,1.5884652981427174
20.715,1.5493646138807429
20.72,1.5786901270772238
20.725,1.6177908113391983
20.73,1.5835777126099706
20.735,1.544477028347996
20.740000000000002,1.5884652981427174
20.745,1.632453567937439
20.75,1.6031280547409579
20.755,1.5542521994134897
20.76,1.5884652981427174
20.765,1.6422287390029326
20.77,1.6226783968719452
20.775000000000002,1.5933528836754642
20.78,1.6275659824046922
20.785,1.656891495601173
20.79,1.6226783968719452
20.795,1.5786901270772238
20.8,1.6226783968719452
20.805,1.6764418377321604
20.81,1.656891495601173
20.815,1.6129032258064515
20.82,1.6422287390029326
20.825,1.6715542521994136
20.830000000000002,1.6422287390029326
20.835,1.6129032258064515
20.84,1.6471163245356795
20.845,1.6959921798631477
20.85,1.6666666666666667
20.855,1.632453567937439
20.86,1.66177908113392
20.865000000000002,1.7057673509286413
20.87,1.6813294232649072
20.875,1.6422287390029326
20.88,1.66177908113392
20.885,1.6813294232649072
20.89,1.6471163245356795
20.895,1.6031280547409579
20.900000000000002,1.632453567937439
20.905,1.6520039100684263
20.91,1.6080156402737047
20.915,1.5591397849462365
20.92,1.5835777126099706
20.925,1.6226783968719452
20.93,1.5884652981427174
20.935,1.544477028347996
20.94,1.573802541544477
20.945,1.6080156402737047
20.95,1.5835777126099706
20.955000000000002,1.5493646138807429
20.96,1.5835777126099706
20.965,1.6226783968719452
20.97,1.6031280547409579
20.975,1.5640273704789833
20.98,1.5884652981427174
20.985,1.6275659824046922
20.990000000000002,1.598240469208211
20.995,1.5591397849462365
21.0,1.5835777126099706
21.005,1.6129032258064515
21.01,1.5835777126099706
21.015,1.5542521994134897
21.02,1.5884652981427174
21.025000000000002,1.6275659824046922
21.03,1.5884652981427174
21.035,1.5493646138807429
21.04,1.5835777126099706
21.045,1.6226783968719452
21.05,1.573802541544477
21.055,1.5249266862170088
21.06,1.5591397849462365
21.065,1.6129032258064515
21.07,1.5933528836754642
21.075,1.544477028347996
21.080000000000002,1.573802541544477
21.085,1.6129032258064515
21.09,1.5786901270772238
21.095,1.544477028347996
21.1,1.5786901270772238
21.105,1.6129032258064515
21.11,1.5786901270772238
21.115000000000002,1.5395894428152492
21.12,1.573802541544477
21.125,1.6177908113391983
21.13,1.598240469208211
21.135,1.5591397849462365
21.14,1.5884652981427174
21.145,1.6373411534701858
21.150000000000002,1.6031280547409579
21.155,1.5591397849462365
21.16,1.5835777126099706
21.165,1.6177908113391983
21.17,1.5884652981427174
21.175,1.5542521994134897
21.18,1.598240469208211
21.185,1.6520039100684263
21.19,1.632453567937439
21.195,1.598240469208211
21.2,1.6422287390029326
21.205000000000002,1.6764418377321604
21.21,1.632453567937439
21.215,1.5933528836754642
21.22,1.632453567937439
21.225,1.6911045943304008
21.23,1.656891495601173
21.235,1.5835777126099706
21.240000000000002,1.5933528836754642
21.245,1.6373411534701858
21.25,1.6129032258064515
21.255,1.5884652981427174
21.26,1.6080156402737047
21.265,1.632453567937439
21.27,1.598240469208211
21.275000000000002,1.5640273704789833
21.28,1.6031280547409579
21.285,1.6373411534701858
21.29,1.6031280547409579
21.295,1.5640273704789833
21.3,1.6080156402737047
21.305,1.6422287390029326
21.31,1.6177908113391983
21.315,1.573802541544477
21.32,1.5835777126099706
21.325,1.5102639296187683
21.330000000000002,1.3685239491691104
21.335,1.3880742913000979
21.34,1.5542521994134897
21.345,1.8328445747800586
21.35,2.2238514173998043
21.355,2.820136852394917
21.36,3.220918866080156
21.365000000000002,3.220918866080156
21.37,3.005865102639296
21.375,2.126099706744868
21.38,1.5689149560117301
21.385,1.5004887585532747
21.39,1.6275659824046922
21.395,1.715542521994135
21.400000000000002,1.7497556207233627
21.405,1.7253176930596286
21.41,1.6373411534701858
21.415,1.5786901270772238
21.42,1.6031280547409579
21.425,1.6373411534701858
21.43,1.598240469208211
21.435,1.5542521994134897
21.44,1.5835777126099706
21.445,1.6129032258064515
21.45,1.5786901270772238
21.455000000000002,1.5395894428152492
21.46,1.5591397849462365
21.465,1.598240469208211
21.47,1.573802541544477
21.475,1.544477028347996
21.48,1.5835777126099706
21.485,1.6275659824046922
21.490000000000002,1.598240469208211
21.495,1.5640273704789833
21.5,1.598240469208211
21.505,1.632453567937439
21.51,1.6080156402737047
21.515,1.5689149560117301
21.52,1.6080156402737047
21.525000000000002,1.6471163245356795
21.53,1.6177908113391983
21.535,1.5884652981427174
21.54,1.632453567937439
21.545,1.66177908113392
21.55,1.632453567937439
21.555,1.6031280547409579
21.56,1.6422287390029326
21.565,1.6813294232649072
21.57,1.6471163245356795
21.575,1.6177908113391983
21.580000000000002,1.6520039100684263
21.585,1.686217008797654
21.59,1.6520039100684263
21.595,1.6129032258064515
21.6,1.6471163245356795
21.605,1.6959921798631477
21.61,1.6666666666666667
21.615000000000002,1.632453567937439
21.62,1.6666666666666667
21.625,1.710654936461388
21.63,1.686217008797654
21.635,1.656891495601173
21.64,1.686217008797654
21.645,1.715542521994135
21.650000000000002,1.6764418377321604
21.655,1.632453567937439
21.66,1.656891495601173
21.665,1.6764418377321604
21.67,1.6373411534701858
21.675,1.5933528836754642
21.68,1.6129032258064515
21.685,1.6471163245356795
21.69,1.6129032258064515
21.695,1.5835777126099706
21.7,1.6129032258064515
21.705000000000002,1.6422287390029326
21.71,1.6129032258064515
21.715,1.5786901270772238
21.72,1.6226783968719452
21.725,1.6715542521994136
21.73,1.6373411534701858
21.735,1.5884652981427174
21.740000000000002,1.6177908113391983
21.745,1.6520039100684263
21.75,1.6275659824046922
21.755,1.598240469208211
21.76,1.6226783968719452
21.765,1.656891495601173
21.77,1.6226783968719452
21.775000000000002,1.5884652981427174
21.78,1.6177908113391983
21.785,1.6520039100684263
21.79,1.6177908113391983
21.795,1.5786901270772238
21.8,1.6177908113391983
21.805,1.6520039100684263
21.81,1.6129032258064515
21.815,1.5689149560117301
21.82,1.6031280547409579
21.825,1.6422287390029326
21.830000000000002,1.6129032258064515
21.835,1.573802541544477
21.84,1.6129032258064515
21.845,1.6520039100684263
21.85,1.6177908113391983
21.855,1.5786901270772238
21.86,1.6177908113391983
21.865000000000002,1.66177908113392
21.87,1.632453567937439
21.875,1.5884652981427174
21.88,1.6177908113391983
21.885,1.656891495601173
21.89,1.6226783968719452
21.895,1.5786901270772238
21.900000000000002,1.6177908113391983
21.905,1.6715542521994136
21.91,1.632453567937439
21.915,1.5884652981427174
21.92,1.6177908113391983
21.925,1.6666666666666667
21.93,1.6422287390029326
21.935,1.6129032258064515
21.94,1.6471163245356795
21.945,1.6715542521994136
21.95,1.632453567937439
21.955000000000002,1.6031280547409579
21.96,1.6373411534701858
21.965,1.6813294232649072
21.97,1.6422287390029326
21.975,1.5933528836754642
21.98,1.6422287390029326
21.985,1.710654936461388
21.990000000000002,1.6813294232649072
21.995,1.6471163245356795
22.0,1.6715542521994136
22.005,1.6911045943304008
22.01,1.6666666666666667
22.015,1.6422287390029326
22.02,1.6959921798631477
22.025000000000002,1.7302052785923754
22.03,1.6666666666666667
22.035,1.5933528836754642
22.04,1.6226783968719452
22.045,1.6715542521994136
22.05,1.6422287390029326
22.055,1.6177908113391983
22.06,1.656891495601173
22.065,1.6813294232649072
22.07,1.6373411534701858
22.075,1.5933528836754642
22.080000000000002,1.6226783968719452
22.085,1.6666666666666667
22.09,1.6422287390029326
22.095,1.6031280547409579
22.1,1.6373411534701858
22.105,1.6715542521994136
22.11,1.6520039100684263
22.115000000000002,1.6080156402737047
22.12,1.5786901270772238
22.125,1.4711632453567938
22.13,1.4271749755620724
22.135,1.4956011730205279
22.14,1.710654936461388
22.145,2.101661779081134
22.150000000000002,2.5757575757575757
22.155,3.220918866080156
22.16,3.220918866080156
22.165,3.1329423264907135
22.17,2.3167155425219943
22.175,1.6373411534701858
22.18,1.5102639296187683
22.185,1.6764418377321604
22.19,1.7790811339198436
22.195,1.7497556207233627
22.2,1.7204301075268817
22.205000000000002,1.6911045943304008
22.21,1.6275659824046922
22.215,1.5786901270772238
22.22,1.6129032258064515
22.225,1.6471163245356795
22.23,1.598240469208211
22.235,1.5591397849462365
22.240000000000002,1.5933528836754642
22.245,1.6275659824046922
22.25,1.5933528836754642
22.255,1.5542521994134897
22.26,1.5933528836754642
22.265,1.6275659824046922
22.27,1.5933528836754642
22.275000000000002,1.5542521994134897
22.28,1.598240469208211
22.285,1.6471163245356795
22.29,1.6177908113391983
22.295,1.5786901270772238
22.3,1.6129032258064515
22.305,1.6520039100684263
22.31,1.6275659824046922
22.315,1.6031280547409579
22.32,1.6471163245356795
22.325,1.6764418377321604
22.330000000000002,1.6422287390029326
22.335,1.6129032258064515
22.34,1.656891495601173
22.345,1.7008797653958945
22.35,1.6666666666666667
22.355,1.632453567937439
22.36,1.6666666666666667
22.365000000000002,1.7008797653958945
22.37,1.6764418377321604
22.375,1.6422287390029326
22.38,1.6666666666666667
22.385,1.6959921798631477
22.39,1.6715542521994136
22.395,1.6422287390029326
22.400000000000002,1.6813294232649072
22.405,1.7253176930596286
22.41,1.6959921798631477
22.415,1.66177908113392
22.42,1.7057673509286413
22.425,1.739980449657869
22.43,1.7008797653958945
22.435,1.6520039100684263
22.44,1.686217008797654
22.445,1.7253176930596286
22.45,1.6813294232649072
22.455000000000002,1.6226783968719452
22.46,1.6275659824046922
22.465,1.656891495601173
22.47,1.6226783968719452
22.475,1.5786901270772238
22.48,1.5933528836754642
22.485,1.6226783968719452
22.490000000000002,1.5933528836754642
22.495,1.5591397849462365
22.5,1.598240469208211
22.505,1.632453567937439
22.51,1.6031280547409579
22.515,1.5591397849462365
22.52,1.5933528836754642
22.525000000000002,1.6422287390029326
22.53,1.6226783968719452
22.535,1.573802541544477
22.54,1.5933528836754642
22.545,1.632453567937439
22.55,1.6031280547409579
22.555,1.5689149560117301
22.56,1.6080156402737047
22.565,1.6373411534701858
22.57,1.6031280547409579
22.575,1.5640273704789833
22.580000000000002,1.6031280547409579
22.585,1.6422287390029326
22.59,1.6129032258064515
22.595,1.5689149560117301
22.6,1.5933528836754642
22.605,1.6275659824046922
22.61,1.5933528836754642
22.615000000000002,1.5542521994134897
22.62,1.5884652981427174
22.625,1.6177908113391983
22.63,1.5835777126099706
22.635,1.5542521994134897
22.64,1.5884652981427174
22.645,1.6177908113391983
22.650000000000002,1.5835777126099706
22.655,1.5542521994134897
